week_end,entry,exp,short_k,wing_k,credit,settle,payout,pnl,bid_size,dist_pct
2012-06-08,2012-06-04,2012-06-08,1245.0,1195.0,3.2499999999999996,1325.6600341796875,0.0,322.35999999999996,129,0.025852115780923703
2012-06-22,2012-06-18,2012-06-22,1310.0,1260.0,3.15,1335.02001953125,0.0,312.36,87,0.02445560651767708
2012-07-06,2012-07-02,2012-07-06,1330.0,1280.0,1.2,1354.6800537109375,0.0,117.36,2,0.023609585784870525
2012-07-13,2012-07-09,2012-07-13,1320.0,1270.0,1.95,1356.780029296875,0.0,192.36,164,0.025600180364313205
2012-07-27,2012-07-23,2012-07-27,1330.0,1280.0,6.750000000000001,1385.969970703125,0.0,672.3600000000001,43,0.023967852113127124
2012-08-03,2012-07-30,2012-08-03,1355.0,1305.0,2.15,1390.989990234375,0.0,212.36,52,0.022345340344865794
2012-08-10,2012-08-06,2012-08-10,1360.0,1310.0,0.6499999999999999,1405.8699951171875,0.0,62.359999999999985,778,0.022279089319077947
2012-08-24,2012-08-20,2012-08-24,1390.0,1340.0,1.15,1411.1300048828125,0.0,112.35999999999999,197,0.01985673936720141
2012-08-31,2012-08-27,2012-08-31,1380.0,1330.0,0.95,1406.5799560546875,0.0,92.36,289,0.022060338009323027
2012-09-07,2012-09-04,2012-09-07,1380.0,1330.0,1.65,1437.9200439453125,0.0,162.36,1,0.01889686820878747
2012-09-14,2012-09-10,2012-09-14,1410.0,1360.0,1.6999999999999997,1465.77001953125,0.0,167.35999999999999,246,0.019416965541913238
2012-10-05,2012-10-01,2012-10-05,1410.0,1360.0,0.25,1460.9300537109375,0.0,22.36,2,0.02128873580332231
2012-10-12,2012-10-08,2012-10-12,1435.0,1385.0,1.7999999999999998,1428.5899658203125,6.4100341796875,-463.64341796875,130,0.01774900423539926
2012-10-26,2012-10-22,2012-10-26,1405.0,1355.0,2.25,1411.93994140625,0.0,222.36,93,0.01966936872204807
2012-11-02,2012-10-31,2012-11-02,1385.0,1335.0,0.6499999999999999,1414.199951171875,0.0,62.359999999999985,137,0.019080090176795073
2012-11-09,2012-11-05,2012-11-09,1385.0,1335.0,3.85,1379.8499755859375,5.1500244140625,-132.64244140625,23,0.02064768220906704
2012-11-23,2012-11-19,2012-11-23,1330.0,1280.0,0.15,1409.1500244140625,0.0,12.36,11,0.0219725304994005
2012-11-30,2012-11-26,2012-11-30,1380.0,1330.0,2.45,1416.1800537109375,0.0,242.36000000000004,25,0.020686246254144124
2012-12-07,2012-12-03,2012-12-07,1385.0,1335.0,1.25,1418.0699462890625,0.0,122.36,1,0.02201701233486077
2012-12-14,2012-12-10,2012-12-14,1390.0,1340.0,1.9499999999999997,1413.5799560546875,0.0,192.35999999999999,150,0.019794472312538988
2012-12-28,2012-12-24,2012-12-28,1400.0,1350.0,2.65,1402.4300537109375,0.0,262.36,127,0.021081721427383165
2013-01-04,2012-12-31,2013-01-04,1375.0,1325.0,4.800000000000001,1466.469970703125,0.0,477.36000000000007,122,0.01955894601542193
2013-01-11,2013-01-07,2013-01-11,1435.0,1385.0,1.4000000000000001,1472.050048828125,0.0,137.36,73,0.021459676182824367
2013-01-25,2013-01-22,2013-01-25,1460.0,1410.0,0.7,1502.9599609375,0.0,67.36,128,0.0174833987067273
2013-02-01,2013-01-28,2013-02-01,1475.0,1425.0,1.2,1513.1700439453125,0.0,117.36,38,0.01860326400182972
2013-02-08,2013-02-04,2013-02-08,1485.0,1435.0,1.3,1517.9300537109375,0.0,127.36,36,0.018616575221026905
2013-02-22,2013-02-19,2013-02-22,1495.0,1445.0,0.4,1515.5999755859375,0.0,37.36,172,0.016311489367170758
2013-03-01,2013-02-25,2013-03-01,1490.0,1440.0,1.35,1518.199951171875,0.0,132.36,134,0.016890984427497393
2013-03-08,2013-03-04,2013-03-08,1495.0,1445.0,2.85,1551.1800537109375,0.0,282.36,97,0.01528122244633674
2013-03-22,2013-03-18,2013-03-22,1535.0,1485.0,2.9,1556.8900146484375,0.0,287.36,79,0.01646693917852551
2013-04-05,2013-04-01,2013-04-05,1545.0,1495.0,1.4,1553.280029296875,0.0,137.36,65,0.015415559817170297
2013-04-12,2013-04-08,2013-04-12,1530.0,1480.0,3.1500000000000004,1588.8499755859375,0.0,312.36000000000007,80,0.014987657639178685
2013-04-26,2013-04-22,2013-04-26,1530.0,1480.0,2.5999999999999996,1582.239990234375,0.0,257.35999999999996,112,0.01623533194020254
2013-05-03,2013-04-29,2013-05-03,1555.0,1505.0,0.65,1614.4200439453125,0.0,62.36,11,0.017216092629753328
2013-05-10,2013-05-06,2013-05-10,1585.0,1535.0,1.2,1633.699951171875,0.0,117.36,452,0.01822328956807048
2013-05-24,2013-05-20,2013-05-24,1640.0,1590.0,2.1999999999999997,1649.5999755859375,0.0,217.35999999999999,50,0.016474042223106236
2013-05-31,2013-05-28,2013-05-31,1620.0,1570.0,0.35,1630.739990234375,0.0,32.36,1,0.01794372940350196
2013-06-07,2013-06-03,2013-06-07,1605.0,1555.0,2.05,1643.3800048828125,0.0,202.35999999999999,10,0.01578423929536159
2013-06-14,2013-06-10,2013-06-14,1615.0,1565.0,2.3,1626.72998046875,0.0,227.35999999999999,80,0.017269289390457347
2013-07-05,2013-07-01,2013-07-05,1575.0,1525.0,1.15,1631.8900146484375,0.0,112.35999999999999,28,0.019473584136240157
2013-07-12,2013-07-08,2013-07-12,1600.0,1550.0,1.1,1680.18994140625,0.0,107.36000000000001,59,0.019541767130248452
2013-07-26,2013-07-22,2013-07-26,1660.0,1610.0,1.0,1691.6500244140625,0.0,97.36,100,0.018964692462292054
2013-08-02,2013-07-29,2013-08-02,1660.0,1610.0,1.75,1709.6700439453125,0.0,172.36,54,0.01870955809847556
2013-08-09,2013-08-05,2013-08-09,1680.0,1630.0,1.3,1691.4200439453125,0.0,127.36,58,0.017354251512089757
2013-08-23,2013-08-19,2013-08-23,1625.0,1575.0,2.05,1663.5,0.0,202.35999999999999,482,0.01861903508989861
2013-08-30,2013-08-26,2013-08-30,1635.0,1585.0,1.15,1632.969970703125,2.030029296875,-90.64292968750001,630,0.017132551848512173
2013-09-06,2013-09-03,2013-09-06,1605.0,1555.0,0.55,1655.1700439453125,0.0,52.36000000000001,20,0.01712828233521139
2013-09-13,2013-09-09,2013-09-13,1625.0,1575.0,1.45,1687.989990234375,0.0,142.36,28,0.01822776098182534
2013-09-27,2013-09-23,2013-09-27,1680.0,1630.0,2.25,1691.75,0.0,222.36,276,0.017492168349100626
2013-10-04,2013-09-30,2013-10-04,1665.0,1615.0,6.75,1690.5,0.0,672.36,77,0.015812028964090438
2013-10-11,2013-10-07,2013-10-11,1665.0,1615.0,6.25,1703.199951171875,0.0,622.36,49,0.015084294587400177
2013-10-25,2013-10-21,2013-10-25,1715.0,1665.0,0.6500000000000001,1759.77001953125,0.0,62.360000000000014,68,0.016910289481226713
2013-11-01,2013-10-28,2013-11-01,1730.0,1680.0,1.25,1761.6400146484375,0.0,122.36,35,0.01691699438042469
2013-11-08,2013-11-04,2013-11-08,1735.0,1685.0,1.4000000000000001,1770.6099853515625,0.0,137.36,50,0.015122280617447218
2013-11-22,2013-11-18,2013-11-22,1770.0,1720.0,1.4,1804.760009765625,0.0,137.36,41,0.01567143048482926
2013-11-29,2013-11-25,2013-11-29,1780.0,1730.0,0.7499999999999999,1805.81005859375,0.0,72.35999999999999,100,0.01371928102996944
2013-12-06,2013-12-02,2013-12-06,1780.0,1730.0,2.3499999999999996,1805.0899658203125,0.0,232.35999999999999,108,0.014292787035337056
2013-12-13,2013-12-09,2013-12-13,1780.0,1730.0,1.25,1775.3199462890625,4.6800537109375,-345.64537109375,25,0.013899565282282488
2013-12-27,2013-12-23,2013-12-27,1790.0,1740.0,0.35,1841.4000244140625,0.0,32.36,278,0.01557478723524953
2014-01-03,2013-12-30,2014-01-03,1815.0,1765.0,0.9,1831.3699951171875,0.0,87.36,76,0.014336930631063201
2014-01-10,2014-01-06,2014-01-10,1805.0,1755.0,1.65,1842.3699951171875,0.0,162.36,73,0.014399053816266173
2014-01-24,2014-01-21,2014-01-24,1815.0,1765.0,0.7500000000000001,1790.2900390625,24.7099609375,-2398.63609375,178,0.012889515310407279
2014-01-31,2014-01-27,2014-01-31,1765.0,1715.0,3.75,1782.5899658203125,0.0,372.36,50,0.014126224528257632
2014-02-07,2014-02-03,2014-02-07,1755.0,1705.0,5.550000000000001,1797.02001953125,0.0,552.3600000000001,10,0.015477460520550022
2014-02-14,2014-02-10,2014-02-14,1770.0,1720.0,3.25,1838.6300048828125,0.0,322.36,210,0.015036014756417757
2014-02-28,2014-02-24,2014-02-28,1810.0,1760.0,0.7,1859.449951171875,0.0,67.36,236,0.014295439074200136
2014-03-07,2014-03-03,2014-03-07,1830.0,1780.0,4.8999999999999995,1878.0400390625,0.0,487.35999999999996,70,0.015837990774268947
2014-03-14,2014-03-10,2014-03-14,1850.0,1800.0,2.3499999999999996,1841.1300048828125,8.8699951171875,-654.63951171875,74,0.014930479904196997
2014-03-28,2014-03-24,2014-03-28,1835.0,1785.0,2.4,1857.6199951171875,0.0,237.36,154,0.01688705141194564
2014-04-04,2014-03-31,2014-04-04,1830.0,1780.0,1.55,1865.0899658203125,0.0,152.36,158,0.014868485045266267
2014-04-11,2014-04-07,2014-04-11,1835.0,1785.0,3.3499999999999996,1815.68994140625,19.31005859375,-1598.645859375,116,0.016133251677796782
2014-04-25,2014-04-21,2014-04-25,1835.0,1785.0,1.6,1863.4000244140625,0.0,157.36,154,0.01600663644621514
2014-05-02,2014-04-28,2014-05-02,1835.0,1785.0,2.7,1881.1400146484373,0.0,267.36,75,0.01524097029192256
2014-05-09,2014-05-05,2014-05-09,1850.0,1800.0,2.9,1878.47998046875,0.0,287.36,22,0.016553799507718712
2014-05-23,2014-05-19,2014-05-23,1850.0,1800.0,1.65,1900.530029296875,0.0,162.36,125,0.014836029080382535
2014-05-30,2014-05-27,2014-05-30,1870.0,1820.0,0.14999999999999997,1923.5699462890625,0.0,12.359999999999996,35,0.016063955226305986
2014-06-13,2014-06-09,2014-06-13,1920.0,1870.0,0.8,1936.1600341796875,0.0,77.36,381,0.015101743214009032
2014-06-27,2014-06-23,2014-06-27,1935.0,1885.0,0.65,1960.9599609375,0.0,62.36,10,0.01419859450015364
2014-07-04,2014-06-30,2014-07-03,1935.0,1885.0,1.05,1985.43994140625,0.0,102.36,62,0.01323839418173995
2014-07-11,2014-07-07,2014-07-11,1960.0,1910.0,1.9500000000000002,1967.5699462890625,0.0,192.36000000000004,127,0.012813251549795741
2014-07-25,2014-07-21,2014-07-25,1950.0,1900.0,2.6,1978.3399658203125,0.0,257.36,299,0.014265335059323401
2014-08-01,2014-07-28,2014-08-01,1950.0,1900.0,3.25,1925.1500244140625,24.8499755859375,-2162.63755859375,81,0.014325124250604431
2014-08-08,2014-08-04,2014-08-08,1895.0,1845.0,3.3500000000000005,1931.5899658203125,0.0,332.36000000000007,108,0.01566112979856671
2014-08-22,2014-08-18,2014-08-22,1925.0,1875.0,1.1,1988.4000244140625,0.0,107.36000000000001,31,0.015375516706822715
2014-08-29,2014-08-25,2014-08-29,1960.0,1910.0,0.44999999999999996,2003.3699951171875,0.0,42.35999999999999,10,0.014282852577630277
2014-09-05,2014-09-02,2014-09-05,1975.0,1925.0,0.85,2007.7099609375,0.0,82.36,10,0.014161136078873933
2014-09-12,2014-09-08,2014-09-12,1980.0,1930.0,1.5,1985.5400390625,0.0,147.36,247,0.013801774896091483
2014-09-26,2014-09-22,2014-09-26,1985.0,1935.0,2.75,1982.8499755859373,2.1500244140627274,57.35755859372726,247,0.012634313621969546
2014-10-03,2014-09-29,2014-10-03,1955.0,1905.0,6.5,1967.9000244140625,0.0,647.36,37,0.014045427505279382
2014-10-10,2014-10-06,2014-10-10,1940.0,1890.0,2.2,1906.1300048828125,33.8699951171875,-3169.63951171875,152,0.01417756190250044
2014-10-24,2014-10-20,2014-10-24,1855.0,1805.0,5.299999999999999,1964.5799560546875,0.0,527.3599999999999,97,0.01683309461788426
2014-10-31,2014-10-27,2014-10-31,1930.0,1880.0,4.65,2018.050048828125,0.0,462.36000000000007,60,0.017601704602612216
2014-11-07,2014-11-03,2014-11-07,1980.0,1930.0,2.15,2031.9200439453125,0.0,212.36,1,0.018854858852594136
2014-11-14,2014-11-10,2014-11-14,1995.0,1945.0,1.15,2039.8199462890625,0.0,112.35999999999999,107,0.018170027927686593
2014-11-28,2014-11-24,2014-11-28,2030.0,1980.0,0.45000000000000007,2067.56005859375,0.0,42.36000000000001,246,0.016234552944027137
2014-12-05,2014-12-01,2014-12-05,2035.0,1985.0,3.1499999999999995,2075.3701171875,0.0,312.35999999999996,1,0.015748059389334358
2014-12-12,2014-12-08,2014-12-12,2045.0,1995.0,1.5,2002.3299560546875,42.6700439453125,-4119.64439453125,28,0.014633590864581289
2014-12-26,2014-12-22,2014-12-26,2035.0,1985.0,1.0,2088.77001953125,0.0,97.36,82,0.01721676962551622
2015-01-02,2014-12-29,2015-01-02,2055.0,2005.0,1.2999999999999998,2058.199951171875,0.0,127.35999999999997,158,0.016167418727519117
2015-01-09,2015-01-05,2015-01-09,2020.0,1970.0,8.4,2044.81005859375,0.0,837.36,84,0.018559883431211403
2015-01-23,2015-01-20,2015-01-23,1980.0,1930.0,6.45,2051.820068359375,0.0,642.36,41,0.0195204777052218
2015-01-30,2015-01-26,2015-01-30,2015.0,1965.0,4.5,1994.989990234375,20.010009765625,-1553.6409765625,55,0.017945076630825695
2015-02-06,2015-02-02,2015-02-06,1955.0,1905.0,1.9000000000000004,2055.469970703125,0.0,187.36000000000004,1,0.020045208462262463
2015-02-13,2015-02-09,2015-02-13,2015.0,1965.0,4.2,2096.989990234375,0.0,417.36,130,0.01968891362070409
2015-02-27,2015-02-23,2015-02-27,2070.0,2020.0,1.75,2104.5,0.0,172.36,241,0.01909683357610881
2015-03-06,2015-03-02,2015-03-06,2065.0,2015.0,0.4,2071.260009765625,0.0,37.36,29,0.018769303872653836
2015-03-13,2015-03-09,2015-03-13,2030.0,1980.0,2.1,2053.39990234375,0.0,207.36,72,0.019920246406096454
2015-03-27,2015-03-23,2015-03-27,2070.0,2020.0,1.0,2061.02001953125,8.97998046875,-800.638046875,35,0.01807319192224745
2015-04-03,2015-03-30,2015-04-02,2020.0,1970.0,0.4,2066.9599609375,0.0,37.36,238,0.019902775879187932
2015-04-10,2015-04-06,2015-04-10,2025.0,1975.0,2.1,2102.06005859375,0.0,207.36,31,0.020300325952355865
2015-04-24,2015-04-20,2015-04-24,2040.0,1990.0,0.5,2117.68994140625,0.0,47.36,263,0.019786819493383376
2015-05-01,2015-04-27,2015-05-01,2080.0,2030.0,0.8999999999999999,2108.2900390625,0.0,87.35999999999999,285,0.01779766748158705
2015-05-08,2015-05-04,2015-05-08,2070.0,2020.0,0.8,2116.10009765625,0.0,77.36,34,0.018161656296363547
2015-05-22,2015-05-18,2015-05-22,2085.0,2035.0,1.6500000000000001,2126.06005859375,0.0,162.36,73,0.017774272194722718
2015-05-29,2015-05-26,2015-05-29,2090.0,2040.0,0.9,2107.389892578125,0.0,87.36,1,0.016960978335485676
2015-06-05,2015-06-01,2015-06-05,2070.0,2020.0,2.75,2092.830078125,0.0,272.36,10,0.017742275745843687
2015-06-12,2015-06-08,2015-06-12,2060.0,2010.0,4.7,2094.110107421875,0.0,467.36,5,0.015686929611797722
2015-07-03,2015-06-29,2015-07-02,2065.0,2015.0,6.35,2076.780029296875,0.0,632.36,5,0.01736386583040795
2015-07-10,2015-07-06,2015-07-10,2040.0,1990.0,5.25,2076.6201171875,0.0,522.36,1,0.017710122775654497
2015-07-24,2015-07-20,2015-07-24,2090.0,2040.0,1.0499999999999998,2079.64990234375,10.35009765625,-932.6497656249999,109,0.017229006521506784
2015-07-31,2015-07-27,2015-07-31,2045.0,1995.0,5.1,2103.840087890625,0.0,507.35999999999996,90,0.016661411281148723
2015-08-07,2015-08-03,2015-08-07,2070.0,2020.0,2.0,2077.570068359375,0.0,197.36,191,0.016084914478720725
2015-08-14,2015-08-10,2015-08-14,2040.0,1990.0,0.6499999999999999,2091.5400390625,0.0,62.359999999999985,285,0.01808365885298083
2015-09-04,2015-08-31,2015-09-04,1945.0,1895.0,9.600000000000001,1921.219970703125,23.780029296875,-1420.6429296874999,34,0.022057748985550265
2015-09-11,2015-09-08,2015-09-11,1875.0,1825.0,1.6,1961.050048828125,0.0,157.36,35,0.024057615165331375
2015-09-25,2015-09-21,2015-09-25,1910.0,1860.0,2.15,1931.3399658203125,0.0,212.36,71,0.02452977154498621
2015-10-02,2015-09-28,2015-10-02,1885.0,1835.0,8.2,1951.3599853515625,0.0,817.3599999999999,65,0.023993686580513637
2015-10-09,2015-10-05,2015-10-09,1900.0,1850.0,1.15,2014.8900146484373,0.0,112.35999999999999,3,0.026320097643238973
2015-10-23,2015-10-19,2015-10-23,1985.0,1935.0,1.25,2075.14990234375,0.0,122.36,29,0.023663247782063985
2015-10-30,2015-10-26,2015-10-30,2025.0,1975.0,1.9000000000000001,2079.360107421875,0.0,187.36,118,0.024166881769412837
2015-11-06,2015-11-02,2015-11-06,2030.0,1980.0,0.9,2099.199951171875,0.0,87.36,1,0.023738123688000753
2015-11-13,2015-11-09,2015-11-13,2055.0,2005.0,3.6500000000000004,2023.0400390625,31.9599609375,-2833.63609375,132,0.021055617473314272
2015-11-27,2015-11-23,2015-11-27,2040.0,1990.0,0.7000000000000001,2090.110107421875,0.0,67.36,140,0.023535625972860408
2015-12-04,2015-11-30,2015-12-04,2045.0,1995.0,2.95,2091.68994140625,0.0,292.36,86,0.021582646417378344
2015-12-11,2015-12-07,2015-12-11,2045.0,1995.0,3.1,2012.3699951171875,32.6300048828125,-2955.64048828125,108,0.02232163595664671
2015-12-25,2015-12-21,2015-12-24,1955.0,1905.0,1.2999999999999998,2060.989990234375,0.0,127.35999999999997,154,0.02520507970252959
2016-01-01,2015-12-28,2015-12-31,2010.0,1960.0,2.2,2043.93994140625,0.0,217.36000000000004,53,0.024740532693502522
2016-01-08,2016-01-04,2016-01-08,1995.0,1945.0,11.1,1922.030029296875,50.0,-3892.64,41,0.023943923407347703
2016-01-22,2016-01-19,2016-01-22,1830.0,1780.0,3.5500000000000003,1906.9000244140625,0.0,352.36,131,0.026766555461515875
2016-01-29,2016-01-25,2016-01-29,1855.0,1805.0,5.6,1940.239990234375,0.0,557.36,50,0.02721696142932818
2016-02-05,2016-02-01,2016-02-05,1885.0,1835.0,4.5,1880.050048828125,4.949951171875,-47.6351171875,160,0.028470699765188418
2016-02-12,2016-02-08,2016-02-12,1825.0,1775.0,11.5,1864.780029296875,0.0,1147.36,33,0.029281161351230444
2016-02-26,2016-02-22,2016-02-26,1865.0,1815.0,0.7000000000000001,1948.050048828125,0.0,67.36,165,0.027521419813838606
2016-03-04,2016-02-29,2016-03-04,1895.0,1845.0,2.85,1999.989990234375,0.0,282.36,68,0.027232384948239884
2016-03-11,2016-03-07,2016-03-11,1945.0,1895.0,2.6999999999999997,2022.18994140625,0.0,267.36,159,0.027495132727104712
2016-03-25,2016-03-21,2016-03-24,1995.0,1945.0,0.39999999999999997,2035.93994140625,0.0,37.36,29,0.026629883217312997
2016-04-01,2016-03-28,2016-04-01,1985.0,1935.0,1.0,2072.780029296875,0.0,97.36,23,0.025020355645199006
2016-04-08,2016-04-04,2016-04-08,2025.0,1975.0,0.65,2047.5999755859373,0.0,62.36,74,0.023051181804893624
2016-04-22,2016-04-18,2016-04-22,2035.0,1985.0,1.1,2091.580078125,0.0,107.36000000000001,150,0.02197785435784795
2016-04-29,2016-04-25,2016-04-29,2045.0,1995.0,2.0,2065.300048828125,0.0,197.36,10,0.022270281980672133
2016-05-06,2016-05-02,2016-05-06,2020.0,1970.0,1.75,2057.139892578125,0.0,172.36,142,0.02193388261130811
2016-05-13,2016-05-09,2016-05-13,2010.0,1960.0,1.0999999999999999,2046.6099853515625,0.0,107.35999999999999,247,0.022915258582169928
2016-05-27,2016-05-23,2016-05-27,2010.0,1960.0,1.4500000000000002,2099.06005859375,0.0,142.36000000000004,176,0.02062059861511059
2016-06-03,2016-05-31,2016-06-03,2055.0,2005.0,0.5,2099.1298828125,0.0,47.36,10,0.02099037538890989
2016-06-10,2016-06-06,2016-06-10,2060.0,2010.0,0.39999999999999997,2096.070068359375,0.0,37.36,146,0.01864100127052271
2016-06-24,2016-06-20,2016-06-24,2030.0,1980.0,2.4499999999999997,2037.4100341796875,0.0,242.35999999999999,27,0.01990130033804758
2016-07-01,2016-06-27,2016-07-01,1995.0,1945.0,11.7,2102.949951171875,0.0,1167.36,30,0.020815659817226162
2016-07-08,2016-07-05,2016-07-08,2060.0,2010.0,3.1999999999999997,2129.89990234375,0.0,317.36,75,0.020423667785313203
2016-07-22,2016-07-18,2016-07-22,2115.0,2065.0,0.55,2175.030029296875,0.0,52.36000000000001,50,0.021621467172519424
2016-07-29,2016-07-25,2016-07-29,2135.0,2085.0,1.9500000000000002,2173.60009765625,0.0,192.36000000000004,81,0.01840435706987253
2016-08-05,2016-08-01,2016-08-05,2135.0,2085.0,0.6499999999999999,2182.8701171875,0.0,62.359999999999985,1,0.01775860136272156
2016-08-12,2016-08-08,2016-08-12,2145.0,2095.0,0.7999999999999999,2184.050048828125,0.0,77.36,172,0.017348772558347825
2016-08-26,2016-08-22,2016-08-26,2150.0,2100.0,2.3,2169.0400390625,0.0,227.35999999999999,125,0.015509217751062813
2016-09-02,2016-08-29,2016-09-02,2135.0,2085.0,1.9000000000000001,2179.97998046875,0.0,187.36,28,0.015693596452563754
2016-09-09,2016-09-06,2016-09-09,2145.0,2095.0,0.15000000000000013,2127.81005859375,17.18994140625,-1706.6341406250003,39,0.016046009955205384
2016-09-23,2016-09-19,2016-09-23,2105.0,2055.0,2.25,2164.68994140625,0.0,222.36,1,0.01596884455248169
2016-09-30,2016-09-26,2016-09-30,2130.0,2080.0,6.35,2168.27001953125,0.0,632.36,27,0.016025362682525485
2016-10-07,2016-10-03,2016-10-07,2135.0,2085.0,4.15,2153.739990234375,0.0,412.36000000000007,17,0.015344038902702034
2016-10-14,2016-10-10,2016-10-14,2120.0,2070.0,0.6,2132.97998046875,0.0,57.36,95,0.015665767635536794
2016-10-28,2016-10-24,2016-10-28,2110.0,2060.0,0.8,2126.409912109375,0.0,77.36,328,0.014552818747048953
2016-11-04,2016-10-31,2016-11-04,2095.0,2045.0,4.2,2085.179931640625,9.820068359375,-564.6468359375,52,0.014771334506344883
2016-11-11,2016-11-07,2016-11-11,2050.0,2000.0,5.4,2164.449951171875,0.0,537.36,9,0.016871412920680347
2016-11-25,2016-11-21,2016-11-25,2145.0,2095.0,0.14999999999999997,2213.35009765625,0.0,12.359999999999996,247,0.01691182180452592
2016-12-02,2016-11-28,2016-12-02,2180.0,2130.0,2.0,2191.949951171875,0.0,197.36,15,0.015067701079718443
2016-12-09,2016-12-05,2016-12-09,2160.0,2110.0,0.19999999999999996,2259.530029296875,0.0,17.359999999999996,27,0.014576040458767639
2016-12-23,2016-12-19,2016-12-23,2225.0,2175.0,0.9500000000000001,2263.7900390625,0.0,92.36,43,0.01464527997725173
2016-12-30,2016-12-27,2016-12-30,2230.0,2180.0,0.3,2238.830078125,0.0,27.36,55,0.014926313164843422
2017-01-06,2017-01-03,2017-01-06,2205.0,2155.0,0.6,2276.97998046875,0.0,57.36,25,0.015110605514703637
2017-01-13,2017-01-09,2017-01-13,2245.0,2195.0,1.7000000000000002,2274.639892578125,0.0,167.36000000000004,49,0.014044910690065202
2017-01-27,2017-01-23,2017-01-27,2240.0,2190.0,1.7,2294.68994140625,0.0,167.36,105,0.013785021765427828
2017-02-03,2017-01-30,2017-02-03,2265.0,2215.0,4.45,2297.419921875,0.0,442.36,87,0.012938541661125326
2017-02-10,2017-02-06,2017-02-10,2265.0,2215.0,1.05,2316.10009765625,0.0,102.36,49,0.01411144804931483
2017-02-24,2017-02-21,2017-02-24,2320.0,2270.0,0.35000000000000003,2367.340087890625,0.0,32.36,123,0.013252995659244404
2017-03-03,2017-02-27,2017-03-03,2340.0,2290.0,1.85,2383.1201171875,0.0,182.36,64,0.011548863651012594
2017-03-10,2017-03-06,2017-03-10,2355.0,2305.0,2.4499999999999997,2372.60009765625,0.0,242.35999999999999,34,0.011799706185471957
2017-03-24,2017-03-20,2017-03-24,2350.0,2300.0,1.65,2343.97998046875,6.02001953125,-439.64195312499993,298,0.011878482077157575
2017-03-31,2017-03-27,2017-03-31,2315.0,2265.0,6.450000000000001,2362.719970703125,0.0,642.3600000000001,149,0.012363578490527284
2017-04-07,2017-04-03,2017-04-07,2335.0,2285.0,1.6999999999999997,2355.5400390625,0.0,167.35999999999999,40,0.011732228553041677
2017-04-14,2017-04-10,2017-04-13,2325.0,2275.0,0.6000000000000001,2328.949951171875,0.0,57.36000000000001,35,0.012965196326976836
2017-04-28,2017-04-24,2017-04-28,2320.0,2270.0,0.35000000000000003,2384.199951171875,0.0,32.36,70,0.01221529538678581
2017-05-05,2017-05-01,2017-05-05,2355.0,2305.0,0.15000000000000002,2399.2900390625,0.0,12.360000000000001,10,0.012247274460987521
2017-05-12,2017-05-08,2017-05-12,2370.0,2320.0,1.45,2390.89990234375,0.0,142.36,45,0.012207794216469472
2017-05-19,2017-05-15,2017-05-19,2365.0,2315.0,0.9500000000000001,2381.72998046875,0.0,92.36,20,0.010832700406387093
2017-05-26,2017-05-22,2017-05-26,2355.0,2305.0,1.0999999999999999,2415.820068359375,0.0,107.35999999999999,133,0.011222926481149325
2017-06-02,2017-05-30,2017-06-02,2385.0,2335.0,1.0499999999999998,2439.070068359375,0.0,102.35999999999999,20,0.01275760093354363
2017-06-09,2017-06-05,2017-06-09,2410.0,2360.0,1.5,2431.77001953125,0.0,147.36,90,0.011918504817259637
2017-06-16,2017-06-12,2017-06-16,2405.0,2355.0,4.949999999999999,2433.14990234375,0.0,492.35999999999996,19,0.011008450353545444
2017-06-23,2017-06-19,2017-06-23,2405.0,2355.0,0.55,2438.300048828125,0.0,52.36000000000001,1,0.011569325143771205
2017-06-30,2017-06-26,2017-06-30,2410.0,2360.0,0.7000000000000001,2423.409912109375,0.0,67.36,110,0.011606466907846854
2017-07-07,2017-07-03,2017-07-07,2395.0,2345.0,0.6000000000000001,2425.179931640625,0.0,57.36000000000001,8,0.011723114594611258
2017-07-14,2017-07-10,2017-07-14,2400.0,2350.0,2.6500000000000004,2459.27001953125,0.0,262.36000000000007,165,0.010382706582761005
2017-07-21,2017-07-17,2017-07-21,2430.0,2380.0,1.0499999999999998,2472.5400390625,0.0,102.35999999999999,30,0.01190191369747557
2017-07-28,2017-07-24,2017-07-28,2445.0,2395.0,1.4500000000000002,2472.10009765625,0.0,142.36000000000004,152,0.011138359188287286
2017-08-04,2017-07-31,2017-08-04,2445.0,2395.0,1.1,2476.830078125,0.0,107.36000000000001,60,0.010962378781483434
2017-08-11,2017-08-07,2017-08-11,2450.0,2400.0,1.2999999999999998,2441.320068359375,8.679931640625,-740.6331640625,418,0.010832425834117292
2017-08-18,2017-08-14,2017-08-18,2415.0,2365.0,1.5499999999999998,2425.550048828125,0.0,152.35999999999999,204,0.010781080572144197
2017-08-25,2017-08-21,2017-08-25,2395.0,2345.0,4.35,2443.050048828125,0.0,432.35999999999996,36,0.012595101405095675
2017-09-01,2017-08-28,2017-09-01,2415.0,2365.0,2.0999999999999996,2476.550048828125,0.0,207.35999999999999,160,0.011481569459283065
2017-09-08,2017-09-05,2017-09-08,2445.0,2395.0,1.45,2461.429931640625,0.0,142.36,175,0.01273951594196698
2017-09-15,2017-09-11,2017-09-15,2435.0,2385.0,0.6,2500.22998046875,0.0,57.36,266,0.01073763315415953
2017-09-22,2017-09-18,2017-09-22,2470.0,2420.0,0.65,2502.219970703125,0.0,62.36,387,0.012090879921007268
2017-09-29,2017-09-25,2017-09-29,2475.0,2425.0,1.5999999999999999,2519.360107421875,0.0,157.36,30,0.010878328453064091
2017-10-06,2017-10-02,2017-10-06,2490.0,2440.0,1.0,2549.330078125,0.0,97.36,60,0.011653795475836101
2017-10-13,2017-10-09,2017-10-13,2520.0,2470.0,1.15,2553.169921875,0.0,112.35999999999999,185,0.011505013955106159
2017-10-20,2017-10-16,2017-10-20,2525.0,2475.0,0.7500000000000001,2575.2099609375,0.0,72.36000000000001,260,0.011033312602363942
2017-10-27,2017-10-23,2017-10-27,2550.0,2500.0,1.2,2581.070068359375,0.0,117.36,50,0.009789477875552472
2017-11-03,2017-10-30,2017-11-03,2555.0,2505.0,2.55,2587.840087890625,0.0,252.35999999999999,111,0.01010048842879578
2017-11-10,2017-11-06,2017-11-10,2560.0,2510.0,1.25,2582.300048828125,0.0,122.36,197,0.010758040274937444
2017-11-17,2017-11-13,2017-11-17,2555.0,2505.0,3.4000000000000004,2578.85009765625,0.0,337.36000000000007,218,0.010571989432643217
2017-11-24,2017-11-20,2017-11-24,2555.0,2505.0,0.9999999999999999,2602.419921875,0.0,97.35999999999999,135,0.009248345872420351
2017-12-01,2017-11-27,2017-12-01,2575.0,2525.0,1.3,2642.219970703125,0.0,127.36,169,0.010536317234785233
2017-12-08,2017-12-04,2017-12-08,2615.0,2565.0,1.35,2651.5,0.0,132.36,208,0.010301932089280763
2017-12-15,2017-12-11,2017-12-15,2625.0,2575.0,1.2,2675.81005859375,0.0,117.36,130,0.009994342824816142
2017-12-22,2017-12-18,2017-12-22,2650.0,2600.0,0.65,2683.340087890625,0.0,62.36,5,0.00964569907002826
2017-12-29,2017-12-26,2017-12-29,2655.0,2605.0,0.8,2673.610107421875,0.0,77.36,265,0.010561496851822148
2018-01-05,2018-01-02,2018-01-05,2650.0,2600.0,0.8500000000000001,2743.14990234375,0.0,82.36000000000001,273,0.00883079674045738
2018-01-12,2018-01-08,2018-01-12,2715.0,2665.0,1.35,2786.239990234375,0.0,132.36,110,0.010261889924316092
2018-01-19,2018-01-16,2018-01-19,2760.0,2710.0,0.7999999999999999,2810.300048828125,0.0,77.36,150,0.009417706416656423
2018-01-26,2018-01-22,2018-01-26,2780.0,2730.0,2.2,2872.8701171875,0.0,217.36000000000004,75,0.010781784258502897
2018-02-02,2018-01-29,2018-02-02,2845.0,2795.0,5.1,2762.1298828125,50.0,-4492.64,50,0.009701140688805123
2018-02-09,2018-02-05,2018-02-09,2730.0,2680.0,6.6,2619.550048828125,50.0,-4342.64,13,0.011632285292748144
2018-02-16,2018-02-12,2018-02-16,2575.0,2525.0,6.299999999999999,2732.219970703125,0.0,627.3599999999999,28,0.017006756121363206
2018-02-23,2018-02-20,2018-02-23,2685.0,2635.0,5.199999999999999,2747.300048828125,0.0,517.3599999999999,36,0.017282638736797296
2018-03-02,2018-02-26,2018-03-02,2700.0,2650.0,2.0,2691.25,8.75,-677.64,133,0.01721692133638664
2018-03-16,2018-03-12,2018-03-16,2730.0,2680.0,1.6,2752.010009765625,0.0,157.36,100,0.020300967487489475
2018-03-23,2018-03-19,2018-03-23,2695.0,2645.0,4.1,2588.260009765625,50.0,-4592.64,110,0.020715771222968866
2018-03-30,2018-03-26,2018-03-29,2530.0,2480.0,1.85,2640.8701171875,0.0,182.36,429,0.02250933428087104
2018-04-06,2018-04-02,2018-04-06,2580.0,2530.0,7.4,2604.469970703125,0.0,737.36,3,0.02304926576711999
2018-04-13,2018-04-09,2018-04-13,2540.0,2490.0,3.2,2656.300048828125,0.0,317.36,65,0.024753585730811916
2018-04-20,2018-04-16,2018-04-20,2595.0,2545.0,2.0,2670.139892578125,0.0,197.36,298,0.023077230622033318
2018-04-27,2018-04-23,2018-04-27,2610.0,2560.0,2.5999999999999996,2669.909912109375,0.0,257.35999999999996,117,0.02252312425475864
2018-05-04,2018-04-30,2018-05-04,2610.0,2560.0,1.6,2663.419921875,0.0,157.36,147,0.022438926436301698
2018-05-11,2018-05-07,2018-05-11,2600.0,2550.0,1.15,2727.719970703125,0.0,112.35999999999999,163,0.023811461855535537
2018-05-18,2018-05-14,2018-05-18,2665.0,2615.0,0.55,2712.969970703125,0.0,52.36000000000001,75,0.022993551895635993
2018-05-25,2018-05-21,2018-05-25,2655.0,2605.0,0.5,2721.330078125,0.0,47.36,284,0.021367715577073204
2018-06-01,2018-05-29,2018-06-01,2665.0,2615.0,2.65,2734.6201171875,0.0,262.36,40,0.02069946552158476
2018-06-08,2018-06-04,2018-06-08,2680.0,2630.0,0.8,2779.030029296875,0.0,77.36,382,0.01997356665527483
2018-06-15,2018-06-11,2018-06-15,2725.0,2675.0,1.4999999999999998,2779.659912109375,0.0,147.35999999999999,333,0.019442045867545082
2018-06-22,2018-06-18,2018-06-22,2725.0,2675.0,2.85,2754.8798828125,0.0,282.36,23,0.0196642444894979
2018-06-29,2018-06-25,2018-06-29,2705.0,2655.0,6.3,2718.3701171875,0.0,627.36,118,0.01810601003829497
2018-07-06,2018-07-02,2018-07-06,2665.0,2615.0,4.1499999999999995,2759.820068359375,0.0,412.35999999999996,3,0.0196331312097847
2018-07-13,2018-07-09,2018-07-13,2710.0,2660.0,0.8500000000000001,2801.31005859375,0.0,82.36000000000001,562,0.018051926258001103
2018-07-20,2018-07-16,2018-07-20,2750.0,2700.0,1.3499999999999999,2801.830078125,0.0,132.36,89,0.01831645106058253
2018-07-27,2018-07-23,2018-07-27,2755.0,2705.0,1.55,2818.820068359375,0.0,152.36,133,0.01671410357488165
2018-08-03,2018-07-30,2018-08-03,2770.0,2720.0,2.5,2840.35009765625,0.0,247.36,197,0.017319327653215384
2018-08-10,2018-08-06,2018-08-10,2795.0,2745.0,1.25,2833.280029296875,0.0,122.36,51,0.015966376008954387
2018-08-17,2018-08-13,2018-08-17,2790.0,2740.0,1.9,2850.1298828125,0.0,187.36,53,0.015275591840322135
2018-08-24,2018-08-20,2018-08-24,2805.0,2755.0,1.6500000000000001,2874.68994140625,0.0,162.36,56,0.0158343249845042
2018-08-31,2018-08-27,2018-08-31,2830.0,2780.0,0.7499999999999999,2901.52001953125,0.0,72.35999999999999,564,0.015546004027268566
2018-09-07,2018-09-04,2018-09-07,2860.0,2810.0,2.4,2871.679931640625,0.0,237.36,42,0.014309747736277103
2018-09-14,2018-09-10,2018-09-14,2830.0,2780.0,1.7000000000000002,2904.97998046875,0.0,167.36000000000004,8,0.01451412853549203
2018-09-21,2018-09-17,2018-09-21,2865.0,2815.0,1.95,2929.669921875,0.0,192.36,253,0.013762566605467208
2018-09-28,2018-09-24,2018-09-28,2890.0,2840.0,3.45,2913.97998046875,0.0,342.36,30,0.013540747911154134
2018-10-05,2018-10-01,2018-10-05,2875.0,2825.0,0.8,2885.570068359375,0.0,77.36,189,0.013376886845488755
2018-10-12,2018-10-08,2018-10-12,2845.0,2795.0,4.9,2767.1298828125,50.0,-4512.64,239,0.014059637228785643
2018-10-19,2018-10-15,2018-10-19,2720.0,2670.0,8.600000000000001,2767.780029296875,0.0,857.3600000000001,32,0.017032045768880705
2018-10-26,2018-10-22,2018-10-26,2720.0,2670.0,7.3999999999999995,2658.68994140625,50.0,-4262.64,130,0.017262943149789618
2018-11-02,2018-10-29,2018-11-02,2605.0,2555.0,4.3,2723.06005859375,0.0,427.36,46,0.02019413417491323
2018-11-09,2018-11-05,2018-11-09,2665.0,2615.0,6.200000000000001,2781.010009765625,0.0,617.3600000000001,27,0.021321622492503352
2018-11-16,2018-11-12,2018-11-16,2720.0,2670.0,6.3,2736.27001953125,0.0,627.36,67,0.021938076292924505
2018-11-23,2018-11-19,2018-11-23,2675.0,2625.0,4.199999999999999,2632.56005859375,42.43994140625,-3826.6341406249994,38,0.022391803109309424
2018-11-30,2018-11-26,2018-11-30,2570.0,2520.0,1.8000000000000003,2760.169921875,0.0,177.36000000000004,53,0.02376396253127386
2018-12-07,2018-12-03,2018-12-07,2695.0,2645.0,1.9000000000000001,2633.080078125,50.0,-4812.64,6,0.023610836912073038
2018-12-14,2018-12-10,2018-12-14,2560.0,2510.0,8.3,2599.949951171875,0.0,827.3600000000001,20,0.02775459764104093
2018-12-21,2018-12-17,2018-12-21,2530.0,2480.0,7.5,2416.6201171875,50.0,-4252.64,34,0.026904345270318174
2018-12-28,2018-12-24,2018-12-28,2340.0,2290.0,10.8,2485.739990234375,0.0,1077.36,19,0.03170548678402615
2019-01-04,2018-12-31,2019-01-04,2405.0,2355.0,4.1,2531.93994140625,0.0,407.35999999999996,56,0.03248126938118021
2019-01-11,2019-01-07,2019-01-11,2450.0,2400.0,3.2,2596.260009765625,0.0,317.36,31,0.03236251384412389
2019-01-18,2019-01-14,2019-01-18,2515.0,2465.0,3.3000000000000003,2670.7099609375,0.0,327.36,85,0.03129887201588899
2019-01-25,2019-01-22,2019-01-25,2590.0,2540.0,2.0,2664.760009765625,0.0,197.36,86,0.030220414091378295
2019-02-01,2019-01-28,2019-02-01,2585.0,2535.0,5.999999999999999,2706.530029296875,0.0,597.3599999999999,38,0.029931404506719602
2019-02-08,2019-02-04,2019-02-08,2630.0,2580.0,0.9999999999999999,2707.8798828125,0.0,97.35999999999999,163,0.02827606879231878
2019-02-15,2019-02-11,2019-02-15,2635.0,2585.0,1.9,2775.60009765625,0.0,187.36,246,0.02691400134661969
2019-02-22,2019-02-19,2019-02-22,2700.0,2650.0,0.7,2792.669921875,0.0,67.36,427,0.027237388311121487
2019-03-01,2019-02-25,2019-03-01,2725.0,2675.0,0.75,2803.68994140625,0.0,72.36,267,0.024231263904459708
2019-03-08,2019-03-04,2019-03-08,2735.0,2685.0,0.6500000000000001,2743.070068359375,0.0,62.360000000000014,325,0.024499835160730045
2019-03-15,2019-03-11,2019-03-15,2675.0,2625.0,1.15,2822.47998046875,0.0,112.35999999999999,133,0.024815286034631838
2019-03-22,2019-03-18,2019-03-22,2755.0,2705.0,0.7,2800.7099609375,0.0,67.36,516,0.02390804573839461
2019-03-29,2019-03-25,2019-03-29,2735.0,2685.0,5.4,2834.39990234375,0.0,537.36,43,0.023461894253235874
2019-04-05,2019-04-01,2019-04-05,2770.0,2720.0,0.85,2892.739990234375,0.0,82.36,280,0.022720824358799217
2019-04-12,2019-04-08,2019-04-12,2830.0,2780.0,1.45,2907.409912109375,0.0,142.36,222,0.021688776193567155
2019-04-19,2019-04-15,2019-04-18,2845.0,2795.0,0.7000000000000001,2905.030029296875,0.0,67.36,145,0.021465811150136568
2019-04-26,2019-04-22,2019-04-26,2845.0,2795.0,1.4,2939.8798828125,0.0,137.36,158,0.02066416825006263
2019-05-03,2019-04-29,2019-05-03,2885.0,2835.0,1.7500000000000002,2945.639892578125,0.0,172.36000000000004,130,0.018667389485313927
2019-05-10,2019-05-06,2019-05-10,2890.0,2840.0,7.8999999999999995,2881.39990234375,8.60009765625,-72.64976562500006,5,0.018888898374277197
2019-05-17,2019-05-13,2019-05-17,2825.0,2775.0,15.599999999999998,2859.530029296875,0.0,1557.3599999999997,80,0.019573785054227962
2019-05-24,2019-05-20,2019-05-24,2800.0,2750.0,6.5,2826.06005859375,0.0,647.36,1,0.020818116504100058
2019-05-31,2019-05-28,2019-05-31,2770.0,2720.0,2.4000000000000004,2752.06005859375,17.93994140625,-1556.634140625,13,0.019836824919299674
2019-06-07,2019-06-03,2019-06-07,2695.0,2645.0,5.9,2873.340087890625,0.0,587.36,1,0.020733580437523807
2019-06-14,2019-06-10,2019-06-14,2810.0,2760.0,1.45,2886.97998046875,0.0,142.36,200,0.02204406229445822
2019-06-21,2019-06-17,2019-06-21,2825.0,2775.0,1.9500000000000002,2950.4599609375,0.0,192.36000000000004,28,0.02146879468789614
2019-06-28,2019-06-24,2019-06-28,2890.0,2840.0,2.1,2941.760009765625,0.0,207.36,372,0.020491706967034735
2019-07-05,2019-07-01,2019-07-05,2885.0,2835.0,0.55,2990.409912109375,0.0,52.36000000000001,219,0.019294575212526314
2019-07-12,2019-07-08,2019-07-12,2930.0,2880.0,2.55,3013.77001953125,0.0,252.35999999999999,222,0.020201214510676586
2019-07-19,2019-07-15,2019-07-19,2955.0,2905.0,0.9500000000000001,2976.610107421875,0.0,92.36,503,0.019500499092625145
2019-07-26,2019-07-22,2019-07-26,2920.0,2870.0,1.65,3025.860107421875,0.0,162.36,15,0.01901831458568371
2019-08-02,2019-07-29,2019-08-02,2970.0,2920.0,3.9,2932.050048828125,37.949951171875,-3407.6351171875,120,0.018460902169555194
2019-08-09,2019-08-05,2019-08-09,2875.0,2825.0,13.9,2918.64990234375,0.0,1387.36,11,0.01945739256767688
2019-08-16,2019-08-12,2019-08-16,2860.0,2810.0,8.399999999999999,2888.679931640625,0.0,837.3599999999999,61,0.020094874104856716
2019-08-23,2019-08-19,2019-08-23,2825.0,2775.0,1.8,2847.110107421875,0.0,177.36,27,0.02204464777946444
2019-08-30,2019-08-26,2019-08-30,2785.0,2735.0,4.799999999999999,2926.4599609375,0.0,477.3599999999999,18,0.021815140643828897
2019-09-06,2019-09-03,2019-09-06,2865.0,2815.0,5.5,2978.7099609375,0.0,547.36,50,0.02100146995273126
2019-09-13,2019-09-09,2019-09-13,2915.0,2865.0,1.55,3007.389892578125,0.0,152.36,296,0.02138844055748494
2019-09-20,2019-09-16,2019-09-20,2945.0,2895.0,2.8000000000000003,2992.070068359375,0.0,277.36,218,0.020745528450466538
2019-09-27,2019-09-23,2019-09-27,2930.0,2880.0,2.4999999999999996,2961.7900390625,0.0,247.35999999999996,42,0.02074485788810739
2019-10-04,2019-09-30,2019-10-04,2900.0,2850.0,2.5500000000000003,2952.010009765625,0.0,252.36000000000004,165,0.0208623968098895
2019-10-11,2019-10-07,2019-10-11,2890.0,2840.0,6.6000000000000005,2970.27001953125,0.0,657.36,55,0.021006029640986308
2019-10-18,2019-10-14,2019-10-18,2905.0,2855.0,3.0,2986.199951171875,0.0,297.36,242,0.02197443973176234
2019-10-25,2019-10-21,2019-10-25,2925.0,2875.0,1.15,3022.550048828125,0.0,112.35999999999999,2,0.020494257642680053
2019-11-01,2019-10-28,2019-11-01,2960.0,2910.0,0.7999999999999999,3066.909912109375,0.0,77.36,267,0.020694462562291176
2019-11-08,2019-11-04,2019-11-08,3010.0,2960.0,0.7499999999999999,3093.080078125,0.0,72.35999999999999,306,0.0185561081806388
2019-11-15,2019-11-11,2019-11-15,3035.0,2985.0,1.9000000000000001,3120.4599609375,0.0,187.36,232,0.018777424656980648
2019-11-22,2019-11-18,2019-11-22,3065.0,3015.0,2.1999999999999997,3110.2900390625,0.0,217.35999999999999,134,0.017773008348691582
2019-11-29,2019-11-25,2019-11-29,3055.0,3005.0,0.35,3140.97998046875,0.0,32.36,811,0.0177764897704413
2019-12-06,2019-12-02,2019-12-06,3090.0,3040.0,3.8500000000000005,3145.91,0.0,382.36000000000007,2,0.016230597070262736
2019-12-13,2019-12-09,2019-12-13,3095.0,3045.0,2.8000000000000003,3168.8,0.0,277.36,121,0.016182916866661748
2019-12-20,2019-12-16,2019-12-20,3115.0,3065.0,0.75,3221.22,0.0,72.36,455,0.016978035849533002
2019-12-27,2019-12-23,2019-12-27,3170.0,3120.0,0.75,3240.02,0.0,72.36,51,0.01590080776848517
2020-01-03,2019-12-30,2020-01-03,3190.0,3140.0,4.1,3234.85,0.0,407.35999999999996,17,0.015438176307553652
2020-01-10,2020-01-06,2020-01-10,3185.0,3135.0,5.2,3265.35,0.0,517.36,111,0.01541029723171087
2020-01-17,2020-01-13,2020-01-17,3215.0,3165.0,1.8499999999999999,3329.62,0.0,182.36,172,0.015419480300733432
2020-01-24,2020-01-21,2020-01-24,3280.0,3230.0,2.2,3295.47,0.0,217.36000000000004,58,0.014902601498068817
2020-01-31,2020-01-27,2020-01-31,3245.0,3195.0,12.399999999999999,3225.52,19.480000000000018,-710.6400000000019,20,0.015314962660864703
2020-02-07,2020-02-03,2020-02-07,3175.0,3125.0,3.3000000000000003,3327.71,0.0,327.36,2,0.015662590838066415
2020-02-14,2020-02-10,2020-02-14,3275.0,3225.0,3.95,3380.16,0.0,392.36,84,0.015839721610356683
2020-02-21,2020-02-18,2020-02-21,3325.0,3275.0,3.0,3337.75,0.0,297.36,125,0.01631875414181573
2020-02-28,2020-02-24,2020-02-28,3285.0,3235.0,21.7,2954.22,50.0,-2832.64,5,0.015804059621002172
2020-03-06,2020-03-02,2020-03-06,2880.0,2830.0,5.899999999999999,2972.37,0.0,587.3599999999999,18,0.025123382821861544
2020-03-13,2020-03-09,2020-03-13,2890.0,2840.0,117.0,2711.02,50.0,6697.36,1,0.027711893203066877
2020-03-20,2020-03-16,2020-03-20,2605.0,2555.0,18.30000000000001,2304.92,50.0,-3172.639999999999,31,0.03910705195830351
2020-04-03,2020-03-30,2020-04-03,2405.0,2355.0,8.100000000000001,2488.65,0.0,807.3600000000001,22,0.05369726969037597
2020-04-10,2020-04-06,2020-04-09,2350.0,2300.0,1.2000000000000002,2789.82,0.0,117.36000000000001,258,0.055712936732766796
2020-04-17,2020-04-13,2020-04-17,2640.0,2590.0,8.100000000000001,2874.56,0.0,807.3600000000001,20,0.053702389401466814
2020-04-24,2020-04-20,2020-04-24,2730.0,2680.0,7.399999999999999,2836.74,0.0,737.3599999999999,22,0.05028943560057885
