week_end,entry,exp,short_k,wing_k,credit,settle,payout,pnl,bid_size,dist_pct
2020-05-01,2020-04-27,2020-05-01,2650.0,2600.0,0.8499999999999999,2830.71,0.0,82.35999999999999,300,0.06582908549955223
2020-05-08,2020-05-04,2020-05-08,2650.0,2600.0,3.3,2929.8,0.0,327.36,48,0.06383910750306461
2020-05-15,2020-05-11,2020-05-15,2750.0,2700.0,1.75,2863.7,0.0,172.36,447,0.06136937674926622
2020-05-22,2020-05-18,2020-05-22,2685.0,2635.0,0.4,2955.45,0.0,37.36,31,0.06240178789677684
2020-05-29,2020-05-26,2020-05-29,2780.0,2730.0,0.15000000000000002,3044.31,0.0,12.360000000000001,47,0.05936490212996323
2020-06-05,2020-06-01,2020-06-05,2875.0,2825.0,1.8499999999999996,3193.93,0.0,182.35999999999999,51,0.055615229723648366
2020-06-12,2020-06-08,2020-06-12,3025.0,2975.0,0.8,3041.31,0.0,77.36,243,0.052890952525571897
2020-06-19,2020-06-15,2020-06-19,2865.0,2815.0,6.1,3097.74,0.0,607.36,3,0.05797172928770824
2020-06-26,2020-06-22,2020-06-26,2920.0,2870.0,2.3999999999999995,3009.05,0.0,237.35999999999996,257,0.057377313783597006
2020-07-03,2020-06-29,2020-07-02,2835.0,2785.0,1.85,3130.01,0.0,182.36,338,0.05784217610209208
2020-07-10,2020-07-06,2020-07-10,2955.0,2905.0,0.3999999999999999,3185.04,0.0,37.35999999999999,409,0.05591355938159948
2020-07-17,2020-07-13,2020-07-17,3020.0,2970.0,1.0000000000000002,3224.73,0.0,97.36000000000003,169,0.05181724562328886
2020-07-24,2020-07-20,2020-07-24,3060.0,3010.0,1.1500000000000001,3215.63,0.0,112.36000000000001,371,0.051083346512731304
2020-07-31,2020-07-27,2020-07-31,3060.0,3010.0,0.95,3271.12,0.0,92.36,245,0.048397981111010936
2020-08-07,2020-08-03,2020-08-07,3120.0,3070.0,0.9000000000000001,3351.28,0.0,87.36000000000001,159,0.046198244026510765
2020-08-14,2020-08-10,2020-08-14,3205.0,3155.0,0.8,3372.85,0.0,77.36,253,0.04364899381728778
2020-08-21,2020-08-17,2020-08-21,3235.0,3185.0,0.6000000000000001,3397.16,0.0,57.36000000000001,501,0.04087048045421525
2020-08-28,2020-08-24,2020-08-28,3265.0,3215.0,0.5999999999999999,3508.01,0.0,57.359999999999985,252,0.03890308375231071
2020-09-04,2020-08-31,2020-09-04,3375.0,3325.0,1.5999999999999996,3426.96,0.0,157.35999999999999,556,0.0379160834775272
2020-09-11,2020-09-08,2020-09-11,3290.0,3240.0,8.2,3340.97,0.0,817.3599999999999,16,0.03996545042836801
2020-09-18,2020-09-14,2020-09-18,3205.0,3155.0,1.4,3319.47,0.0,137.36,379,0.0406977614285671
2020-09-25,2020-09-21,2020-09-25,3180.0,3130.0,7.1,3298.46,0.0,707.36,27,0.04201574347712129
2020-10-02,2020-09-28,2020-10-02,3160.0,3110.0,1.5,3348.42,0.0,147.36,146,0.0419771651012897
2020-10-09,2020-10-05,2020-10-09,3215.0,3165.0,1.55,3477.14,0.0,152.36,338,0.03984565854940541
2020-10-16,2020-10-12,2020-10-16,3345.0,3295.0,0.75,3483.81,0.0,72.36,245,0.03800249630443407
2020-10-23,2020-10-19,2020-10-23,3350.0,3300.0,1.75,3465.39,0.0,172.36,484,0.0384090980851424
2020-10-30,2020-10-26,2020-10-30,3335.0,3285.0,4.5,3269.96,50.0,-4552.64,208,0.03762635662941253
2020-11-06,2020-11-02,2020-11-06,3135.0,3085.0,2.8000000000000007,3509.44,0.0,277.36000000000007,4,0.041272676118362314
2020-11-13,2020-11-09,2020-11-13,3365.0,3315.0,0.55,3585.15,0.0,52.36000000000001,6,0.0411575635998906
2020-11-20,2020-11-16,2020-11-20,3440.0,3390.0,1.1999999999999997,3557.54,0.0,117.35999999999997,393,0.040486451055046536
2020-11-27,2020-11-23,2020-11-27,3420.0,3370.0,0.40000000000000013,3638.35,0.0,37.360000000000014,177,0.03866154702406718
2020-12-04,2020-11-30,2020-12-04,3500.0,3450.0,2.1499999999999995,3699.12,0.0,212.35999999999996,68,0.038025478582324385
2020-12-11,2020-12-07,2020-12-11,3565.0,3515.0,1.25,3663.46,0.0,122.36,273,0.03625727199982696
2020-12-18,2020-12-14,2020-12-18,3535.0,3485.0,0.8499999999999999,3709.41,0.0,82.35999999999999,727,0.035065211575941876
2020-12-25,2020-12-21,2020-12-24,3585.0,3535.0,5.500000000000001,3703.06,0.0,547.3600000000001,121,0.0335390264219916
2021-01-01,2020-12-28,2020-12-31,3580.0,3530.0,0.5,3756.07,0.0,47.36,115,0.033231975717379666
2021-01-08,2021-01-04,2021-01-08,3640.0,3590.0,3.999999999999999,3824.68,0.0,397.3599999999999,11,0.030901979995048057
2021-01-15,2021-01-11,2021-01-15,3705.0,3655.0,3.8000000000000007,3768.25,0.0,377.36000000000007,18,0.03129150674043314
2021-01-22,2021-01-19,2021-01-22,3650.0,3600.0,1.5999999999999996,3841.47,0.0,157.35999999999999,630,0.031380614343528165
2021-01-29,2021-01-25,2021-01-29,3725.0,3675.0,2.1499999999999995,3714.24,10.760000000000218,-863.6400000000219,421,0.030319122627535763
2021-02-05,2021-02-01,2021-02-05,3595.0,3545.0,4.9,3886.83,0.0,487.36000000000007,4,0.03210347204273278
2021-02-12,2021-02-08,2021-02-12,3760.0,3710.0,1.0,3934.83,0.0,97.36,580,0.03263070419853709
2021-02-19,2021-02-16,2021-02-19,3815.0,3765.0,1.15,3906.71,0.0,112.35999999999999,142,0.03045366635915654
2021-02-26,2021-02-22,2021-02-26,3790.0,3740.0,4.1000000000000005,3811.15,0.0,407.36000000000007,116,0.029874242009260997
2021-03-05,2021-03-01,2021-03-05,3695.0,3645.0,1.9,3841.94,0.0,187.36,41,0.03047636540151925
2021-03-12,2021-03-08,2021-03-12,3720.0,3670.0,5.199999999999999,3943.34,0.0,517.3599999999999,1,0.031739173438419144
2021-03-19,2021-03-15,2021-03-19,3820.0,3770.0,2.3,3913.1,0.0,227.35999999999999,147,0.03127805362966423
2021-03-26,2021-03-22,2021-03-26,3790.0,3740.0,1.6,3974.54,0.0,157.36,411,0.031458434489279576
2021-04-02,2021-03-29,2021-04-01,3850.0,3800.0,2.5,4019.87,0.0,247.36,272,0.03133444373436925
2021-04-09,2021-04-05,2021-04-09,3900.0,3850.0,0.4999999999999999,4128.8,0.0,47.359999999999985,72,0.029819372268257406
2021-04-16,2021-04-12,2021-04-16,4010.0,3960.0,1.4500000000000002,4185.47,0.0,142.36000000000004,280,0.028773493509009925
2021-04-23,2021-04-19,2021-04-23,4070.0,4020.0,1.5000000000000002,4180.17,0.0,147.36000000000004,429,0.02758829952191755
2021-04-30,2021-04-26,2021-04-30,4070.0,4020.0,1.65,4181.17,0.0,162.36,89,0.026355387460318618
2021-05-07,2021-05-03,2021-05-07,4075.0,4025.0,0.8999999999999999,4232.6,0.0,87.35999999999999,19,0.025392414085052765
2021-05-14,2021-05-10,2021-05-14,4125.0,4075.0,2.0,4173.85,0.0,197.36,4,0.025421726598308454
2021-05-21,2021-05-17,2021-05-21,4060.0,4010.0,4.5,4155.86,0.0,447.36,18,0.027276974495969036
2021-05-28,2021-05-24,2021-05-28,4040.0,3990.0,1.4,4204.11,0.0,137.36,674,0.027878706212432488
2021-06-04,2021-06-01,2021-06-04,4095.0,4045.0,0.75,4229.89,0.0,72.36,73,0.025953174393629017
2021-06-11,2021-06-07,2021-06-11,4125.0,4075.0,1.3000000000000003,4247.44,0.0,127.36000000000003,394,0.0247973351552878
2021-06-18,2021-06-14,2021-06-18,4145.0,4095.0,1.6999999999999997,4166.45,0.0,167.35999999999999,351,0.02411805699433061
2021-06-25,2021-06-21,2021-06-25,4065.0,4015.0,2.3,4280.7,0.0,227.35999999999999,62,0.024349266161840372
2021-07-02,2021-06-28,2021-07-02,4180.0,4130.0,0.9999999999999998,4352.34,0.0,97.35999999999997,105,0.023524189968930274
2021-07-09,2021-07-06,2021-07-09,4250.0,4200.0,0.85,4369.55,0.0,82.36,8,0.02351378798531368
2021-07-16,2021-07-12,2021-07-16,4270.0,4220.0,1.8500000000000005,4327.16,0.0,182.36000000000007,86,0.022782666407295985
2021-07-23,2021-07-19,2021-07-23,4230.0,4180.0,12.0,4411.79,0.0,1197.36,10,0.022453526100259722
2021-07-30,2021-07-26,2021-07-30,4310.0,4260.0,2.2499999999999996,4395.26,0.0,222.35999999999996,229,0.023072267718998403
2021-08-06,2021-08-02,2021-08-06,4295.0,4245.0,1.4499999999999997,4436.52,0.0,142.35999999999999,128,0.022810937236932564
2021-08-13,2021-08-09,2021-08-13,4340.0,4290.0,2.0,4468.0,0.0,197.36,106,0.021755790574594598
2021-08-20,2021-08-16,2021-08-20,4375.0,4325.0,3.0,4441.67,0.0,297.36,2,0.02081468218442256
2021-08-27,2021-08-23,2021-08-27,4345.0,4295.0,1.1999999999999997,4509.37,0.0,117.35999999999997,188,0.021764336386989595
2021-09-03,2021-08-30,2021-09-03,4415.0,4365.0,1.15,4535.43,0.0,112.35999999999999,200,0.020927535331986484
2021-09-10,2021-09-07,2021-09-10,4445.0,4395.0,1.7999999999999998,4458.58,0.0,177.35999999999999,236,0.01993857252785299
2021-09-17,2021-09-13,2021-09-17,4370.0,4320.0,3.0,4432.99,0.0,297.36,42,0.019867312014139014
2021-09-24,2021-09-20,2021-09-24,4345.0,4295.0,11.8,4455.48,0.0,1177.36,2,0.01984890559193677
2021-10-01,2021-09-27,2021-10-01,4365.0,4315.0,3.8999999999999995,4357.04,7.960000000000036,-408.6400000000037,3,0.02030757628807661
2021-10-08,2021-10-04,2021-10-08,4260.0,4210.0,7.0,4391.34,0.0,697.36,20,0.0222720011751097
2021-10-15,2021-10-11,2021-10-15,4290.0,4240.0,3.2,4471.37,0.0,317.36,41,0.02307723838281712
2021-10-22,2021-10-18,2021-10-22,4365.0,4315.0,2.6000000000000005,4544.9,0.0,257.36000000000007,110,0.023789129506169227
2021-10-29,2021-10-25,2021-10-29,4440.0,4390.0,1.45,4605.38,0.0,142.36,221,0.023080815859534785
2021-11-05,2021-11-01,2021-11-05,4500.0,4450.0,0.9500000000000002,4697.53,0.0,92.36000000000001,1,0.02288193373836689
2021-11-12,2021-11-08,2021-11-12,4595.0,4545.0,1.5499999999999998,4682.85,0.0,152.35999999999999,71,0.021826364067925007
2021-11-19,2021-11-15,2021-11-19,4580.0,4530.0,1.2499999999999998,4697.96,0.0,122.35999999999997,256,0.021963120749116532
2021-11-26,2021-11-22,2021-11-26,4600.0,4550.0,0.29999999999999993,4594.62,5.380000000000109,-510.6400000000109,745,0.02085160367478651
2021-12-03,2021-11-29,2021-12-03,4490.0,4440.0,3.0999999999999996,4538.43,0.0,307.35999999999996,13,0.022770109388806886
2021-12-10,2021-12-06,2021-12-10,4430.0,4380.0,5.800000000000001,4712.02,0.0,577.3600000000001,58,0.02389152195803401
2021-12-17,2021-12-13,2021-12-17,4600.0,4550.0,5.199999999999999,4620.64,0.0,517.3599999999999,8,0.02377324374684327
2021-12-24,2021-12-20,2021-12-23,4505.0,4455.0,10.599999999999998,4725.79,0.0,1057.3599999999997,10,0.02502683610928363
2021-12-31,2021-12-27,2021-12-31,4605.0,4555.0,1.25,4766.18,0.0,122.36,356,0.02555974768239807
2022-01-07,2022-01-03,2022-01-07,4650.0,4600.0,1.65,4677.03,0.0,162.36,92,0.02437591530324081
2022-01-14,2022-01-10,2022-01-14,4555.0,4505.0,9.899999999999999,4662.85,0.0,987.3599999999999,12,0.026091344293280083
2022-01-21,2022-01-18,2022-01-21,4540.0,4490.0,9.7,4397.94,50.0,-4032.6399999999994,10,0.026346547712236153
2022-01-28,2022-01-24,2022-01-28,4265.0,4215.0,15.800000000000004,4431.85,0.0,1577.3600000000004,3,0.030227788464599246
2022-02-04,2022-01-31,2022-02-04,4290.0,4240.0,5.9,4500.53,0.0,587.36,10,0.03200694969369459
2022-02-11,2022-02-07,2022-02-11,4355.0,4305.0,3.4000000000000004,4418.64,0.0,337.36000000000007,414,0.032336191515221484
2022-02-18,2022-02-14,2022-02-18,4270.0,4220.0,6.399999999999999,4348.87,0.0,637.3599999999999,7,0.03363930983288983
2022-03-04,2022-02-28,2022-03-04,4225.0,4175.0,7.800000000000001,4328.87,0.0,777.3600000000001,23,0.036411116052592486
2022-03-11,2022-03-07,2022-03-11,4175.0,4125.0,9.599999999999998,4204.31,0.0,957.3599999999998,3,0.03554507296361404
2022-03-18,2022-03-14,2022-03-18,4045.0,3995.0,5.1,4463.12,0.0,507.35999999999996,144,0.03789206790174854
2022-03-25,2022-03-21,2022-03-25,4295.0,4245.0,3.3999999999999995,4543.06,0.0,337.35999999999996,154,0.037668716055136296
2022-04-01,2022-03-28,2022-04-01,4380.0,4330.0,1.5999999999999996,4545.86,0.0,157.35999999999999,281,0.03589210796247472
2022-04-08,2022-04-04,2022-04-08,4385.0,4335.0,0.44999999999999996,4488.28,0.0,42.35999999999999,486,0.03538604356491394
2022-04-15,2022-04-11,2022-04-14,4330.0,4280.0,3.0999999999999996,4392.59,0.0,307.35999999999996,112,0.0352651795342536
2022-04-22,2022-04-18,2022-04-22,4235.0,4185.0,2.6,4271.78,0.0,257.36,245,0.035876328088895196
2022-04-29,2022-04-25,2022-04-29,4110.0,4060.0,8.999999999999998,4131.93,0.0,897.3599999999998,30,0.03787180051407136
2022-05-06,2022-05-02,2022-05-06,3965.0,3915.0,2.8000000000000007,4123.34,0.0,277.36000000000007,10,0.04040000677649434
2022-05-13,2022-05-09,2022-05-13,3955.0,3905.0,10.7,4023.89,0.0,1067.36,15,0.0408261263926817
2022-05-20,2022-05-16,2022-05-20,3845.0,3795.0,6.199999999999999,3901.36,0.0,617.3599999999999,23,0.044456980682871516
2022-05-27,2022-05-23,2022-05-27,3715.0,3665.0,3.0999999999999996,4158.24,0.0,307.35999999999996,172,0.047767957840342885
2022-06-03,2022-05-31,2022-06-03,3965.0,3915.0,3.5,4108.54,0.0,347.36,24,0.046471584131748
2022-06-10,2022-06-06,2022-06-10,3925.0,3875.0,1.2,3900.86,24.139999999999873,-2296.639999999987,86,0.04467280347763438
2022-06-17,2022-06-13,2022-06-17,3710.0,3660.0,12.100000000000001,3674.84,35.159999999999854,-2308.6399999999853,13,0.048927672359428465
2022-06-24,2022-06-21,2022-06-24,3480.0,3430.0,0.5,3911.74,0.0,47.36,122,0.05301999542837243
2022-07-01,2022-06-27,2022-07-01,3710.0,3660.0,2.4999999999999996,3825.33,0.0,247.35999999999996,272,0.051572957302888175
2022-07-08,2022-07-05,2022-07-08,3625.0,3575.0,4.5,3899.38,0.0,447.36,78,0.05236933807017955
2022-07-15,2022-07-11,2022-07-15,3700.0,3650.0,3.0999999999999996,3863.16,0.0,307.35999999999996,237,0.05113120547369072
2022-07-22,2022-07-18,2022-07-22,3665.0,3615.0,0.4999999999999999,3961.63,0.0,47.359999999999985,226,0.05129479493471662
2022-07-29,2022-07-25,2022-07-29,3765.0,3715.0,1.9,4130.29,0.0,187.36,566,0.0496336104078372
2022-08-05,2022-08-01,2022-08-05,3930.0,3880.0,1.0,4145.19,0.0,97.36,53,0.04849296296385967
2022-08-12,2022-08-08,2022-08-12,3955.0,3905.0,0.65,4280.15,0.0,62.36,647,0.045882094668760566
2022-08-19,2022-08-15,2022-08-19,4090.0,4040.0,0.6500000000000001,4228.48,0.0,62.360000000000014,199,0.044426013107017194
2022-08-26,2022-08-22,2022-08-26,4045.0,3995.0,3.8999999999999995,4057.66,0.0,387.35999999999996,271,0.04339147873467525
2022-09-02,2022-08-29,2022-09-02,3875.0,3825.0,3.7,3924.26,0.0,367.36,162,0.04501609301912922
2022-09-09,2022-09-06,2022-09-09,3745.0,3695.0,1.6500000000000004,4067.36,0.0,162.36000000000004,25,0.04567994985041771
2022-09-16,2022-09-12,2022-09-16,3885.0,3835.0,1.0,3873.33,11.670000000000073,-1069.6400000000074,365,0.0448349789544078
2022-09-23,2022-09-19,2022-09-23,3685.0,3635.0,3.7,3693.23,0.0,367.36,84,0.048622244941690984
2022-09-30,2022-09-26,2022-09-30,3500.0,3450.0,3.6000000000000005,3585.62,0.0,357.36000000000007,73,0.052320055886040134
2022-10-07,2022-10-03,2022-10-07,3395.0,3345.0,1.4499999999999997,3639.66,0.0,142.35999999999999,55,0.05316235406986795
2022-10-14,2022-10-10,2022-10-14,3445.0,3395.0,3.6000000000000005,3583.07,0.0,357.36000000000007,202,0.05348301764450522
2022-10-21,2022-10-17,2022-10-21,3390.0,3340.0,0.55,3752.75,0.0,52.36000000000001,287,0.05388395984449094
2022-10-28,2022-10-24,2022-10-28,3560.0,3510.0,1.6,3901.06,0.0,157.36,316,0.05136233428818866
2022-11-04,2022-10-31,2022-11-04,3710.0,3660.0,5.200000000000001,3770.55,0.0,517.3600000000001,61,0.04897643204667448
2022-11-11,2022-11-07,2022-11-11,3575.0,3525.0,2.8000000000000003,3992.93,0.0,277.36,594,0.05186246038376369
2022-11-18,2022-11-14,2022-11-18,3795.0,3745.0,1.25,3965.34,0.0,122.36,18,0.049570115178578095
2022-11-25,2022-11-21,2022-11-25,3775.0,3725.0,0.19999999999999996,4026.12,0.0,17.359999999999996,566,0.04800092804147946
2022-12-02,2022-11-28,2022-12-02,3840.0,3790.0,1.7000000000000002,4071.7,0.0,167.36000000000004,524,0.04622813030908167
2022-12-09,2022-12-05,2022-12-09,3885.0,3835.0,0.7499999999999999,3934.38,0.0,72.35999999999999,241,0.04585308347864524
2022-12-16,2022-12-12,2022-12-16,3750.0,3700.0,3.4000000000000004,3852.36,0.0,337.36000000000007,59,0.04686380064965766
2022-12-23,2022-12-19,2022-12-23,3665.0,3615.0,0.75,3844.82,0.0,72.36,188,0.04863512236654937
2022-12-30,2022-12-27,2022-12-30,3660.0,3610.0,1.0000000000000002,3839.5,0.0,97.36000000000003,335,0.048069870631134916
2023-01-06,2023-01-03,2023-01-06,3665.0,3615.0,1.0499999999999998,3895.08,0.0,102.35999999999999,60,0.04544862612319312
2023-01-13,2023-01-09,2023-01-13,3725.0,3675.0,1.25,3999.09,0.0,122.36,134,0.04366534191852284
2023-01-20,2023-01-17,2023-01-20,3830.0,3780.0,0.44999999999999996,3972.61,0.0,42.35999999999999,533,0.04228211918211396
2023-01-27,2023-01-23,2023-01-27,3805.0,3755.0,0.44999999999999996,4070.56,0.0,42.35999999999999,200,0.0421914056501897
2023-02-03,2023-01-30,2023-02-03,3905.0,3855.0,3.4,4136.48,0.0,337.36,351,0.04067253645690026
2023-02-10,2023-02-06,2023-02-10,3970.0,3920.0,1.75,4090.46,0.0,172.36,340,0.04024677987080793
2023-02-17,2023-02-13,2023-02-17,3930.0,3880.0,2.6000000000000005,4079.09,0.0,257.36000000000007,156,0.03922786190306225
2023-02-24,2023-02-21,2023-02-24,3920.0,3870.0,3.3,3970.04,0.0,327.36,8,0.039001345888421225
2023-03-03,2023-02-27,2023-03-03,3815.0,3765.0,0.30000000000000004,4045.64,0.0,27.360000000000003,160,0.03905250324933753
2023-03-10,2023-03-06,2023-03-10,3890.0,3840.0,0.9999999999999999,3861.59,28.409999999999854,-2743.6399999999853,72,0.038471045372302004
2023-03-17,2023-03-13,2023-03-17,3700.0,3650.0,5.1,3916.64,0.0,507.35999999999996,4,0.041845457441105904
2023-03-24,2023-03-20,2023-03-24,3755.0,3705.0,3.8,3970.99,0.0,377.36,44,0.041270068221741056
2023-03-31,2023-03-27,2023-03-31,3815.0,3765.0,1.4000000000000001,4109.31,0.0,137.36,334,0.039282395573899655
2023-04-07,2023-04-03,2023-04-06,3950.0,3900.0,0.35000000000000003,4105.02,0.0,32.36,84,0.03876806568499344
2023-04-14,2023-04-10,2023-04-14,3955.0,3905.0,2.85,4137.64,0.0,282.36,127,0.03654549795128901
2023-04-21,2023-04-17,2023-04-21,3990.0,3940.0,0.6000000000000001,4133.52,0.0,57.36000000000001,179,0.03568217631306743
2023-04-28,2023-04-24,2023-04-28,3995.0,3945.0,0.8,4169.48,0.0,77.36,10,0.03351138980820231
2023-05-05,2023-05-01,2023-05-05,4030.0,3980.0,1.3499999999999999,4136.25,0.0,132.36,76,0.03345261279584015
2023-05-12,2023-05-08,2023-05-12,4000.0,3950.0,1.75,4124.08,0.0,172.36,94,0.03294046539740103
2023-05-19,2023-05-15,2023-05-19,3990.0,3940.0,1.4500000000000002,4191.98,0.0,142.36000000000004,1,0.03251149347248354
2023-05-26,2023-05-22,2023-05-26,4060.0,4010.0,1.1,4205.45,0.0,107.36000000000001,96,0.03148392883553824
2023-06-02,2023-05-30,2023-06-02,4075.0,4025.0,0.9000000000000001,4282.37,0.0,87.36000000000001,110,0.031019272610541042
2023-06-09,2023-06-05,2023-06-09,4155.0,4105.0,0.5000000000000001,4298.86,0.0,47.360000000000014,158,0.02974287602425757
2023-06-16,2023-06-12,2023-06-16,4175.0,4125.0,0.9499999999999997,4409.59,0.0,92.35999999999997,95,0.028812289769845886
2023-06-23,2023-06-20,2023-06-23,4285.0,4235.0,0.65,4348.33,0.0,62.36,233,0.028254327499835617
2023-06-30,2023-06-26,2023-06-30,4225.0,4175.0,0.5000000000000001,4450.38,0.0,47.360000000000014,308,0.02836261277317957
2023-07-07,2023-07-03,2023-07-07,4330.0,4280.0,0.4,4398.95,0.0,37.36,17,0.027049375558941057
2023-07-14,2023-07-10,2023-07-14,4280.0,4230.0,1.0000000000000002,4505.42,0.0,97.36000000000003,54,0.02704054376612597
2023-07-21,2023-07-17,2023-07-21,4385.0,4335.0,0.4,4536.34,0.0,37.36,136,0.026727807840334548
2023-07-28,2023-07-24,2023-07-28,4420.0,4370.0,1.0,4582.23,0.0,97.36,17,0.02564622581199825
2023-08-04,2023-07-31,2023-08-04,4470.0,4420.0,0.9999999999999998,4478.03,0.0,97.35999999999997,36,0.024492441453178818
2023-08-11,2023-08-07,2023-08-11,4365.0,4315.0,1.4,4464.05,0.0,137.36,393,0.025241009997699827
2023-08-18,2023-08-14,2023-08-18,4350.0,4300.0,2.15,4369.71,0.0,212.36,401,0.025548548963385306
2023-08-25,2023-08-21,2023-08-25,4255.0,4205.0,1.45,4405.71,0.0,142.36,120,0.026251169986108925
2023-09-01,2023-08-28,2023-09-01,4290.0,4240.0,0.7999999999999999,4515.77,0.0,77.36,100,0.026263644225334858
2023-09-08,2023-09-05,2023-09-08,4400.0,4350.0,0.75,4457.49,0.0,72.36,42,0.02563682384178123
2023-09-15,2023-09-11,2023-09-15,4345.0,4295.0,0.8500000000000001,4450.32,0.0,82.36000000000001,279,0.02523617551581715
2023-09-22,2023-09-18,2023-09-22,4340.0,4290.0,1.5,4320.06,19.9399999999996,-1846.63999999996,349,0.024789228639738203
2023-09-29,2023-09-25,2023-09-29,4205.0,4155.0,3.1000000000000005,4288.05,0.0,307.36000000000007,200,0.02663388934412957
2023-10-06,2023-10-02,2023-10-06,4175.0,4125.0,3.15,4308.5,0.0,312.36,51,0.026363964972423402
2023-10-13,2023-10-09,2023-10-13,4195.0,4145.0,3.5,4327.78,0.0,347.36,40,0.026343274921666472
2023-10-20,2023-10-16,2023-10-20,4215.0,4165.0,1.7499999999999996,4224.16,0.0,172.35999999999996,456,0.026059550161976752
2023-10-27,2023-10-23,2023-10-27,4110.0,4060.0,4.1000000000000005,4117.37,0.0,407.36000000000007,71,0.027025491458656837
2023-11-03,2023-10-30,2023-11-03,4000.0,3950.0,1.9999999999999996,4358.34,0.0,197.35999999999996,435,0.028506060907812485
2023-11-10,2023-11-06,2023-11-10,4230.0,4180.0,1.0,4415.24,0.0,97.36,104,0.02944699128567302
2023-11-17,2023-11-13,2023-11-17,4290.0,4240.0,1.6500000000000001,4514.02,0.0,162.36,221,0.02836538897092792
2023-11-24,2023-11-20,2023-11-24,4390.0,4340.0,0.19999999999999996,4559.34,0.0,17.359999999999996,29,0.027474401974293516
2023-12-01,2023-11-27,2023-12-01,4440.0,4390.0,0.4,4594.63,0.0,37.36,119,0.026174841095421737
2023-12-08,2023-12-04,2023-12-08,4480.0,4430.0,2.25,4604.37,0.0,222.36,24,0.024948690101270418
2023-12-15,2023-12-11,2023-12-15,4495.0,4445.0,1.6,4719.19,0.0,157.36,116,0.023753521111465822
2023-12-22,2023-12-18,2023-12-22,4605.0,4555.0,0.35,4754.63,0.0,32.36,99,0.02419694905269752
2023-12-29,2023-12-26,2023-12-29,4645.0,4595.0,0.5000000000000001,4769.83,0.0,47.360000000000014,885,0.023057524980913364
2024-01-05,2024-01-02,2024-01-05,4665.0,4615.0,2.35,4697.24,0.0,232.36,161,0.021977722476482376
2024-01-12,2024-01-08,2024-01-12,4590.0,4540.0,1.0,4783.83,0.0,97.36,324,0.022830428081171025
2024-01-19,2024-01-16,2024-01-19,4680.0,4630.0,1.95,4839.81,0.0,192.36,311,0.02170436658493298
2024-01-26,2024-01-22,2024-01-26,4735.0,4685.0,0.7000000000000001,4890.97,0.0,67.36,159,0.021655808802411747
2024-02-02,2024-01-29,2024-02-02,4785.0,4735.0,2.3499999999999996,4958.61,0.0,232.35999999999999,130,0.021666458800606067
2024-02-09,2024-02-05,2024-02-09,4855.0,4805.0,1.9500000000000002,5026.61,0.0,192.36000000000004,101,0.02089496854965397
2024-02-16,2024-02-12,2024-02-16,4920.0,4870.0,1.45,5005.57,0.0,142.36,223,0.02120912503655539
2024-02-23,2024-02-20,2024-02-23,4900.0,4850.0,4.050000000000001,5088.8,0.0,402.36000000000007,42,0.021090505177232505
2024-03-01,2024-02-26,2024-03-01,4975.0,4925.0,1.3,5137.08,0.0,127.36,61,0.022362836032070465
2024-03-08,2024-03-04,2024-03-08,5025.0,4975.0,1.6,5123.69,0.0,157.36,459,0.02181784204256113
2024-03-15,2024-03-11,2024-03-15,5010.0,4960.0,5.2,5117.09,0.0,517.36,7,0.022189086381104166
2024-03-22,2024-03-18,2024-03-22,5005.0,4955.0,1.35,5234.18,0.0,132.36,380,0.02190502805305362
2024-03-29,2024-03-25,2024-03-28,5120.0,5070.0,0.7,5254.35,0.0,67.36,20,0.02181430520157891
2024-04-05,2024-04-01,2024-04-05,5145.0,5095.0,1.0,5204.34,0.0,97.36,9,0.02081132775700141
2024-04-12,2024-04-08,2024-04-12,5095.0,5045.0,3.7,5123.41,0.0,367.36,104,0.021009388318211367
2024-04-19,2024-04-15,2024-04-19,5015.0,4965.0,1.6,4967.23,47.77000000000044,-4619.640000000044,244,0.02115973541059565
2024-04-26,2024-04-22,2024-04-26,4850.0,4800.0,2.45,5099.96,0.0,242.36000000000004,140,0.023600678849177423
2024-05-03,2024-04-29,2024-05-03,4980.0,4930.0,2.9499999999999997,5127.79,0.0,292.36,160,0.02352175311178912
2024-05-10,2024-05-06,2024-05-10,5010.0,4960.0,0.65,5222.68,0.0,62.36,233,0.022970909495123624
2024-05-17,2024-05-13,2024-05-17,5105.0,5055.0,1.8499999999999999,5303.27,0.0,182.36,278,0.022532492896367436
2024-05-24,2024-05-20,2024-05-24,5185.0,5135.0,0.65,5304.72,0.0,62.36,35,0.022301334836808313
2024-05-31,2024-05-28,2024-05-31,5190.0,5140.0,0.8999999999999999,5277.51,0.0,87.35999999999999,36,0.02162602361670366
2024-06-07,2024-06-03,2024-06-07,5160.0,5110.0,1.35,5346.99,0.0,132.36,39,0.02226618234735703
2024-06-14,2024-06-10,2024-06-14,5230.0,5180.0,3.65,5431.6,0.0,362.36,131,0.021879599550401214
2024-06-21,2024-06-17,2024-06-21,5315.0,5265.0,1.4000000000000001,5464.62,0.0,137.36,271,0.021466971058251776
2024-06-28,2024-06-24,2024-06-28,5350.0,5300.0,1.0,5460.48,0.0,97.36,160,0.02097492597838457
2024-07-05,2024-07-01,2024-07-05,5345.0,5295.0,0.75,5567.19,0.0,72.36,65,0.021148323956868182
2024-07-12,2024-07-08,2024-07-12,5455.0,5405.0,0.9999999999999998,5615.35,0.0,97.35999999999997,273,0.020151997686444975
2024-07-19,2024-07-15,2024-07-19,5500.0,5450.0,0.75,5505.0,0.0,72.36,107,0.020541907450114482
2024-07-26,2024-07-22,2024-07-26,5390.0,5340.0,1.25,5459.1,0.0,122.36,196,0.02089009990917348
2024-08-02,2024-07-29,2024-08-02,5335.0,5285.0,3.6999999999999997,5346.56,0.0,367.36,40,0.022732684874796277
2024-08-16,2024-08-12,2024-08-16,5205.0,5155.0,6.199999999999999,5554.25,0.0,617.3599999999999,66,0.02603963953175052
2024-08-23,2024-08-19,2024-08-23,5405.0,5355.0,1.25,5634.61,0.0,122.36,90,0.026871314758968357
2024-08-30,2024-08-26,2024-08-30,5490.0,5440.0,1.5999999999999999,5648.4,0.0,157.36,404,0.025664597904735142
2024-09-06,2024-09-03,2024-09-06,5510.0,5460.0,5.2,5408.42,50.0,-4482.64,2,0.024502513986261534
2024-09-13,2024-09-09,2024-09-13,5260.0,5210.0,2.2,5626.02,0.0,217.36000000000004,12,0.02744239537609876
2024-09-20,2024-09-16,2024-09-20,5475.0,5425.0,2.8999999999999995,5702.55,0.0,287.35999999999996,65,0.026843132445316657
2024-09-27,2024-09-23,2024-09-27,5550.0,5500.0,1.0999999999999999,5738.17,0.0,107.35999999999999,33,0.026751190256990326
2024-10-04,2024-09-30,2024-10-04,5595.0,5545.0,4.199999999999999,5751.07,0.0,417.35999999999996,34,0.024950463301017585
2024-10-11,2024-10-07,2024-10-11,5610.0,5560.0,4.699999999999999,5815.03,0.0,467.35999999999996,16,0.024529348451679377
2024-10-18,2024-10-14,2024-10-18,5675.0,5625.0,1.0499999999999998,5864.67,0.0,102.35999999999999,38,0.02408070121736255
2024-10-25,2024-10-21,2024-10-25,5730.0,5680.0,1.4999999999999998,5808.12,0.0,147.35999999999999,12,0.0229629288604474
2024-11-01,2024-10-28,2024-11-01,5675.0,5625.0,2.55,5728.8,0.0,252.35999999999999,140,0.02291963664662574
2024-11-08,2024-11-04,2024-11-08,5595.0,5545.0,2.6999999999999993,5995.54,0.0,267.35999999999996,120,0.023355676581483065
2024-11-15,2024-11-11,2024-11-15,5850.0,5800.0,1.3000000000000003,5870.62,0.0,127.36000000000003,210,0.02427471086841218
2024-11-22,2024-11-18,2024-11-22,5720.0,5670.0,2.5999999999999996,5969.34,0.0,257.35999999999996,40,0.025656574603704532
2024-11-29,2024-11-25,2024-11-29,5820.0,5770.0,0.25,6032.38,0.0,22.36,248,0.025017841168370396
2024-12-06,2024-12-02,2024-12-06,5890.0,5840.0,0.8499999999999999,6090.27,0.0,82.35999999999999,56,0.023602624503098298
2024-12-13,2024-12-09,2024-12-13,5955.0,5905.0,0.8500000000000001,6051.09,0.0,82.36000000000001,264,0.022210837943145448
2024-12-20,2024-12-16,2024-12-20,5920.0,5870.0,1.1,5930.85,0.0,107.36000000000001,42,0.02166386551844381
2024-12-27,2024-12-23,2024-12-27,5790.0,5740.0,2.7,5970.84,0.0,267.36,3,0.02374870381142675
2025-01-03,2024-12-30,2025-01-03,5830.0,5780.0,11.4,5942.47,0.0,1137.36,5,0.02358797087177016
2025-01-10,2025-01-06,2025-01-10,5800.0,5750.0,0.8,5827.04,0.0,77.36,78,0.023974879132751238
2025-01-17,2025-01-13,2025-01-17,5680.0,5630.0,6.4,5996.66,0.0,637.36,41,0.02523408111150772
2025-01-24,2025-01-21,2025-01-24,5845.0,5795.0,0.8999999999999999,6101.24,0.0,87.35999999999999,169,0.025290745181484334
2025-01-31,2025-01-27,2025-01-31,5950.0,5900.0,10.399999999999999,6040.53,0.0,1037.3599999999997,4,0.02478840366876238
2025-02-07,2025-02-03,2025-02-07,5890.0,5840.0,4.5,6025.99,0.0,447.36,100,0.024919998741832216
2025-02-14,2025-02-10,2025-02-14,5870.0,5820.0,1.6,6114.63,0.0,157.36,136,0.025886202930970645
2025-02-21,2025-02-18,2025-02-21,5965.0,5915.0,1.2,6013.13,0.0,117.36,36,0.02447081834877991
2025-02-28,2025-02-24,2025-02-28,5865.0,5815.0,4.8999999999999995,5954.5,0.0,487.35999999999996,48,0.02463442499995844
2025-03-07,2025-03-03,2025-03-07,5800.0,5750.0,2.8000000000000007,5770.2,29.800000000000182,-2702.640000000018,1,0.02594676295238895
2025-03-14,2025-03-10,2025-03-14,5605.0,5555.0,14.0,5638.94,0.0,1397.36,14,0.028629856850715715
2025-03-21,2025-03-17,2025-03-21,5465.0,5415.0,3.5,5667.56,0.0,347.36,30,0.030846222871674395
2025-03-28,2025-03-24,2025-03-28,5500.0,5450.0,0.7999999999999998,5580.94,0.0,77.35999999999999,165,0.02956475096867089
2025-04-04,2025-03-31,2025-04-04,5410.0,5360.0,10.2,5074.08,50.0,-3982.6399999999994,5,0.030629248836217485
2025-04-11,2025-04-07,2025-04-11,4870.0,4820.0,14.5,5363.36,0.0,1447.36,7,0.040220099013023036
2025-04-18,2025-04-14,2025-04-17,5125.0,5075.0,3.0999999999999996,5282.7,0.0,307.35999999999996,10,0.04444228990781892
2025-04-25,2025-04-21,2025-04-25,5045.0,4995.0,8.599999999999998,5525.21,0.0,857.3599999999998,28,0.04499593011149598
2025-05-02,2025-04-28,2025-05-02,5275.0,5225.0,3.1999999999999993,5686.67,0.0,317.35999999999996,60,0.045285156582283756
2025-05-09,2025-05-05,2025-05-09,5435.0,5385.0,0.6999999999999993,5659.91,0.0,67.35999999999993,83,0.044256128806489575
2025-05-16,2025-05-12,2025-05-16,5415.0,5365.0,0.09999999999999987,5958.38,0.0,7.359999999999985,306,0.043271006076068326
2025-05-30,2025-05-27,2025-05-30,5560.0,5510.0,0.30000000000000004,5911.69,0.0,27.360000000000003,117,0.041845171830248
2025-06-06,2025-06-02,2025-06-06,5675.0,5625.0,1.5999999999999996,6000.36,0.0,157.35999999999999,37,0.04003762037589921
2025-06-13,2025-06-09,2025-06-13,5770.0,5720.0,0.7000000000000002,5976.97,0.0,67.36000000000001,170,0.038391029871540985
2025-06-20,2025-06-16,2025-06-20,5755.0,5705.0,0.3999999999999999,5967.84,0.0,37.35999999999999,181,0.03713754628181173
2025-06-27,2025-06-23,2025-06-27,5755.0,5705.0,1.1500000000000004,6173.07,0.0,112.36000000000003,19,0.03566449502667634
2025-07-04,2025-06-30,2025-07-03,5960.0,5910.0,0.30000000000000004,6279.35,0.0,27.360000000000003,261,0.034516051170649244
2025-07-11,2025-07-07,2025-07-11,6070.0,6020.0,1.5,6259.75,0.0,147.36,14,0.03333943799915602
2025-07-18,2025-07-14,2025-07-18,6060.0,6010.0,1.0999999999999999,6296.79,0.0,107.35999999999999,88,0.03191022005671153
2025-07-25,2025-07-21,2025-07-25,6105.0,6055.0,0.4,6388.64,0.0,37.36,133,0.030458376410837897
2025-08-01,2025-07-28,2025-08-01,6200.0,6150.0,1.3000000000000003,6238.01,0.0,127.36000000000003,160,0.02952741115479982
2025-08-08,2025-08-04,2025-08-08,6050.0,6000.0,0.7999999999999998,6389.45,0.0,77.35999999999999,80,0.030139419462296504
2025-08-15,2025-08-11,2025-08-15,6200.0,6150.0,1.3499999999999996,6449.8,0.0,132.35999999999999,273,0.029650439396192132
2025-08-22,2025-08-18,2025-08-22,6270.0,6220.0,1.4,6466.91,0.0,137.36,36,0.027876833390182668
2025-08-29,2025-08-25,2025-08-29,6290.0,6240.0,1.35,6460.26,0.0,132.36,185,0.027356187112546775
2025-09-12,2025-09-08,2025-09-12,6310.0,6260.0,1.1500000000000004,6584.29,0.0,112.36000000000003,28,0.026459924400216
2025-09-19,2025-09-15,2025-09-19,6415.0,6365.0,1.0999999999999996,6664.36,0.0,107.35999999999997,81,0.025711200448339907
2025-09-26,2025-09-22,2025-09-26,6500.0,6450.0,1.2000000000000002,6643.7,0.0,117.36000000000001,69,0.024662533236499782
2025-10-03,2025-09-29,2025-10-03,6480.0,6430.0,1.0500000000000003,6715.79,0.0,102.36000000000003,60,0.02463988440176405
2025-10-10,2025-10-06,2025-10-10,6560.0,6510.0,1.7000000000000002,6552.51,7.489999999999782,-581.6399999999782,20,0.023197568714924077
2025-10-17,2025-10-13,2025-10-17,6390.0,6340.0,1.5,6664.01,0.0,147.36,77,0.024801183058095328
2025-10-24,2025-10-20,2025-10-24,6500.0,6450.0,2.3,6791.69,0.0,227.35999999999999,58,0.024611307606081056
2025-10-31,2025-10-27,2025-10-31,6630.0,6580.0,1.3000000000000003,6840.2,0.0,127.36000000000003,60,0.02380703477337741
2025-11-07,2025-11-03,2025-11-07,6680.0,6630.0,2.7,6728.8,0.0,267.36,3,0.023420367825502154
2025-11-14,2025-11-10,2025-11-14,6565.0,6515.0,1.0,6734.11,0.0,97.36,233,0.0243431221020093
2025-11-21,2025-11-17,2025-11-21,6565.0,6515.0,4.800000000000001,6602.99,0.0,477.36000000000007,46,0.025112449900580727
2025-11-28,2025-11-24,2025-11-28,6425.0,6375.0,2.5999999999999996,6849.09,0.0,257.35999999999996,12,0.026955969946948245
2025-12-05,2025-12-01,2025-12-05,6670.0,6620.0,2.0,6870.4,0.0,197.36,18,0.026147999223254496
2025-12-12,2025-12-08,2025-12-12,6695.0,6645.0,2.8999999999999995,6827.41,0.0,287.35999999999996,23,0.025529809035863944
2025-12-19,2025-12-15,2025-12-19,6660.0,6610.0,2.8,6834.5,0.0,277.36,29,0.024520279285995695
2025-12-26,2025-12-22,2025-12-26,6665.0,6615.0,0.30000000000000004,6929.94,0.0,27.360000000000003,315,0.02480064379252323
2026-01-02,2025-12-29,2026-01-02,6765.0,6715.0,1.25,6858.47,0.0,122.36,201,0.02380107187075207
2026-01-09,2026-01-05,2026-01-09,6700.0,6650.0,0.8499999999999999,6966.28,0.0,82.35999999999999,57,0.0231057364105989
2026-01-16,2026-01-12,2026-01-16,6810.0,6760.0,2.3,6940.01,0.0,227.35999999999999,44,0.02243378101368302
2026-01-23,2026-01-20,2026-01-23,6785.0,6735.0,9.7,6915.61,0.0,967.3599999999999,10,0.0223357026863074
2026-01-30,2026-01-26,2026-01-30,6765.0,6715.0,2.7,6939.03,0.0,267.36,40,0.02177826684847753
2026-02-13,2026-02-09,2026-02-13,6775.0,6725.0,4.799999999999999,6836.17,0.0,477.3599999999999,17,0.02269088181411655
2026-02-20,2026-02-17,2026-02-20,6680.0,6630.0,8.7,6909.51,0.0,867.3599999999999,11,0.022844663020375456
2026-02-27,2026-02-23,2026-02-27,6750.0,6700.0,6.699999999999999,6878.88,0.0,667.3599999999999,10,0.02308557336193163
2026-03-06,2026-03-02,2026-03-06,6725.0,6675.0,5.100000000000001,6740.02,0.0,507.3600000000001,1,0.02236992068476265
2026-03-13,2026-03-09,2026-03-13,6580.0,6530.0,12.799999999999997,6632.19,0.0,1277.3599999999997,3,0.023741769312257296
2026-03-20,2026-03-16,2026-03-20,6470.0,6420.0,3.700000000000001,6506.48,0.0,367.3600000000001,28,0.024454968871519003
2026-03-27,2026-03-23,2026-03-27,6335.0,6285.0,2.5,6368.85,0.0,247.36,15,0.02635526429036892
2026-04-03,2026-03-30,2026-04-02,6190.0,6140.0,5.699999999999999,6582.69,0.0,567.3599999999999,48,0.02808199282445031
2026-04-10,2026-04-06,2026-04-10,6395.0,6345.0,3.8000000000000007,6816.89,0.0,377.36000000000007,3,0.028512659718139485
2026-04-17,2026-04-13,2026-04-17,6620.0,6570.0,2.799999999999999,7126.06,0.0,277.3599999999999,25,0.028882672303645843
2026-04-24,2026-04-20,2026-04-24,6920.0,6870.0,2.5999999999999996,7165.08,0.0,257.35999999999996,56,0.028916399805783335
2026-05-01,2026-04-27,2026-05-01,6965.0,6915.0,3.299999999999999,7230.12,0.0,327.3599999999999,53,0.027924321849860705
2026-05-08,2026-05-04,2026-05-08,7030.0,6980.0,2.0,7398.93,0.0,197.36,78,0.027678655402676566
2026-05-15,2026-05-11,2026-05-15,7195.0,7145.0,1.6000000000000005,7408.5,0.0,157.36000000000007,111,0.02756209343783497
2026-05-22,2026-05-18,2026-05-22,7210.0,7160.0,2.5,7473.47,0.0,247.36,167,0.026793547951677127
2026-05-29,2026-05-26,2026-05-29,7275.0,7225.0,0.6499999999999999,7580.06,0.0,62.359999999999985,190,0.026556606235122408
2026-06-12,2026-06-08,2026-06-12,7185.0,7135.0,2.7,7431.46,0.0,267.36,35,0.026915898988859276
2026-06-19,2026-06-15,2026-06-18,7230.0,7180.0,0.5499999999999998,7500.58,0.0,52.359999999999985,79,0.027109074125407393
2026-06-26,2026-06-22,2026-06-26,7300.0,7250.0,1.5,7354.02,0.0,147.36,105,0.02674193195726196
2026-07-03,2026-06-29,2026-07-02,7155.0,7105.0,1.5999999999999996,7483.24,0.0,157.35999999999999,45,0.027062749353414926
2026-07-17,2026-07-13,2026-07-17,7380.0,7330.0,1.7999999999999998,7457.69,0.0,177.35999999999999,50,0.025792731463330644
2026-07-24,2026-07-20,2026-07-24,7265.0,7215.0,2.3000000000000007,7411.98,0.0,227.36000000000007,84,0.02583775941343762
2026-07-31,2026-07-27,2026-07-31,7220.0,7170.0,3.4000000000000004,7489.72,0.0,337.36000000000007,55,0.025901311120645167
2026-08-07,2026-08-03,2026-08-07,7300.0,7250.0,0.75,7757.64,0.0,72.36,13,0.025330719973510392
