week_end,entry,exp,short_k,wing_k,credit,settle,payout,pnl,bid_size,dist_pct
2020-05-01,2020-04-27,2020-05-01,2690.0,2640.0,1.7,2830.71,0.0,167.36,264,0.051728392450488866
2020-05-08,2020-05-04,2020-05-08,2685.0,2635.0,5.200000000000001,2929.8,0.0,517.3600000000001,24,0.051474718356878675
2020-05-15,2020-05-11,2020-05-15,2790.0,2740.0,3.2,2863.7,0.0,317.36,139,0.047716567683801
2020-05-22,2020-05-18,2020-05-22,2725.0,2675.0,0.8,2955.45,0.0,77.36,166,0.048433844327268855
2020-05-29,2020-05-26,2020-05-29,2820.0,2770.0,0.35,3044.31,0.0,32.36,318,0.045830584174998676
2020-06-05,2020-06-01,2020-06-05,2910.0,2860.0,3.0,3193.93,0.0,297.36,40,0.044118371650718864
2020-06-12,2020-06-08,2020-06-12,3060.0,3010.0,1.65,3041.31,18.690000000000055,-1706.6400000000058,177,0.04193266602586777
2020-06-19,2020-06-15,2020-06-19,2905.0,2855.0,8.100000000000001,3097.74,0.0,807.3600000000001,3,0.044819502122440645
2020-06-26,2020-06-22,2020-06-26,2960.0,2910.0,3.999999999999999,3009.05,0.0,397.3599999999999,175,0.044464674246386005
2020-07-03,2020-06-29,2020-07-02,2870.0,2820.0,3.2,3130.01,0.0,317.36,41,0.046210598029278405
2020-07-10,2020-07-06,2020-07-10,2995.0,2945.0,0.8,3185.04,0.0,77.36,330,0.04313404749505599
2020-07-17,2020-07-13,2020-07-17,3055.0,3005.0,1.75,3224.73,0.0,172.36,124,0.04082837264210182
2020-07-24,2020-07-20,2020-07-24,3095.0,3045.0,2.15,3215.63,0.0,212.36,359,0.040229724659118754
2020-07-31,2020-07-27,2020-07-31,3090.0,3040.0,1.75,3271.12,0.0,172.36,148,0.03906854955327575
2020-08-07,2020-08-03,2020-08-07,3150.0,3100.0,1.4499999999999997,3351.28,0.0,142.35999999999999,182,0.03702707329599644
2020-08-14,2020-08-10,2020-08-14,3235.0,3185.0,1.4000000000000001,3372.85,0.0,137.36,149,0.03469719032727799
2020-08-21,2020-08-17,2020-08-21,3265.0,3215.0,1.2499999999999998,3397.16,0.0,122.35999999999997,152,0.03197592540433162
2020-08-28,2020-08-24,2020-08-28,3290.0,3240.0,0.9500000000000002,3508.01,0.0,92.36000000000001,419,0.03154399557277251
2020-09-04,2020-08-31,2020-09-04,3405.0,3355.0,2.7,3426.96,0.0,267.36,142,0.02936422644177189
2020-09-11,2020-09-08,2020-09-11,3315.0,3265.0,10.600000000000001,3340.97,0.0,1057.3600000000001,12,0.03267035506688144
2020-09-18,2020-09-14,2020-09-18,3235.0,3185.0,2.4000000000000004,3319.47,0.0,237.36000000000004,131,0.031718333298413275
2020-09-25,2020-09-21,2020-09-25,3210.0,3160.0,10.200000000000001,3298.46,0.0,1017.3600000000001,13,0.032978156151433756
2020-10-02,2020-09-28,2020-10-02,3190.0,3140.0,2.3000000000000003,3348.42,0.0,227.36000000000004,363,0.03288201160541587
2020-10-09,2020-10-05,2020-10-09,3245.0,3195.0,2.75,3477.14,0.0,272.36,77,0.030886209017984622
2020-10-16,2020-10-12,2020-10-16,3370.0,3320.0,1.25,3483.81,0.0,122.36,319,0.03081267938593208
2020-10-23,2020-10-19,2020-10-23,3380.0,3330.0,3.0999999999999996,3465.39,0.0,307.35999999999996,95,0.029797836276949645
2020-10-30,2020-10-26,2020-10-30,3365.0,3315.0,7.199999999999999,3269.96,50.0,-4282.64,51,0.02896932235621384
2020-11-06,2020-11-02,2020-11-06,3165.0,3115.0,3.900000000000002,3509.44,0.0,387.36000000000024,4,0.03209825196638492
2020-11-13,2020-11-09,2020-11-13,3395.0,3345.0,0.9000000000000004,3585.15,0.0,87.36000000000003,254,0.03260919120999363
2020-11-20,2020-11-16,2020-11-20,3470.0,3420.0,2.0000000000000004,3557.54,0.0,197.36000000000007,330,0.032118600337503335
2020-11-27,2020-11-23,2020-11-27,3450.0,3400.0,0.8500000000000001,3638.35,0.0,82.36000000000001,255,0.030228753576909878
2020-12-04,2020-11-30,2020-12-04,3530.0,3480.0,3.4999999999999996,3699.12,0.0,347.35999999999996,46,0.02977998268445859
2020-12-11,2020-12-07,2020-12-11,3595.0,3545.0,2.2,3663.46,0.0,217.36000000000004,468,0.028147235018058322
2020-12-18,2020-12-14,2020-12-18,3560.0,3510.0,1.35,3709.41,0.0,132.36,844,0.02824106172852987
2020-12-25,2020-12-21,2020-12-24,3610.0,3560.0,7.699999999999999,3703.06,0.0,767.3599999999999,64,0.02679941014878373
2021-01-01,2020-12-28,2020-12-31,3605.0,3555.0,0.8500000000000001,3756.07,0.0,82.36000000000001,98,0.026480802363450753
2021-01-08,2021-01-04,2021-01-08,3665.0,3615.0,5.200000000000001,3824.68,0.0,517.3600000000001,139,0.02424608700050855
2021-01-15,2021-01-11,2021-01-15,3730.0,3680.0,5.3,3768.25,0.0,527.36,2,0.024755012184025812
2021-01-22,2021-01-19,2021-01-22,3675.0,3625.0,2.5000000000000004,3841.47,0.0,247.36000000000007,482,0.024746234989716714
2021-01-29,2021-01-25,2021-01-29,3750.0,3700.0,3.1,3714.24,35.76000000000022,-3268.6400000000217,435,0.023811197276042716
2021-02-05,2021-02-01,2021-02-05,3620.0,3570.0,6.1,3886.83,0.0,607.36,12,0.025372619970707274
2021-02-12,2021-02-08,2021-02-12,3790.0,3740.0,1.55,3934.83,0.0,152.36,957,0.024912332157567975
2021-02-19,2021-02-16,2021-02-19,3840.0,3790.0,1.7499999999999996,3906.71,0.0,172.35999999999996,362,0.02410015172192952
2021-02-26,2021-02-22,2021-02-26,3815.0,3765.0,5.6000000000000005,3811.15,3.849999999999909,172.36000000000917,121,0.023474995584519976
2021-03-12,2021-03-08,2021-03-12,3745.0,3695.0,6.6,3943.34,0.0,657.36,1,0.025232044227655834
2021-03-19,2021-03-15,2021-03-19,3845.0,3795.0,3.3,3913.1,0.0,327.36,146,0.024938250315722242
2021-03-26,2021-03-22,2021-03-26,3815.0,3765.0,2.35,3974.54,0.0,232.36,386,0.025069637883008335
2021-04-02,2021-03-29,2021-04-01,3880.0,3830.0,4.2,4019.87,0.0,417.36,41,0.023786400438792907
2021-04-09,2021-04-05,2021-04-09,3925.0,3875.0,0.8999999999999999,4128.8,0.0,87.35999999999999,187,0.023600265680233413
2021-04-16,2021-04-12,2021-04-16,4035.0,3985.0,2.45,4185.47,0.0,242.36000000000004,92,0.022718465413679563
2021-04-23,2021-04-19,2021-04-23,4095.0,4045.0,2.55,4180.17,0.0,252.35999999999999,264,0.021615254678686087
2021-04-30,2021-04-26,2021-04-30,4090.0,4040.0,2.4499999999999997,4181.17,0.0,242.35999999999999,150,0.02157089304980421
2021-05-07,2021-05-03,2021-05-07,4095.0,4045.0,1.4500000000000002,4232.6,0.0,142.36000000000004,15,0.02060906397013278
2021-05-14,2021-05-10,2021-05-14,4150.0,4100.0,2.8999999999999995,4173.85,0.0,287.35999999999996,193,0.01951519160799517
2021-05-21,2021-05-17,2021-05-21,4085.0,4035.0,5.9,4155.86,0.0,587.36,38,0.02128730069360431
2021-05-28,2021-05-24,2021-05-28,4065.0,4015.0,2.0500000000000003,4204.11,0.0,202.36000000000004,199,0.021863104146915363
2021-06-04,2021-06-01,2021-06-04,4115.0,4065.0,1.1999999999999997,4229.89,0.0,117.35999999999997,63,0.021195924940118047
2021-06-11,2021-06-07,2021-06-11,4145.0,4095.0,2.0999999999999996,4247.44,0.0,207.35999999999999,290,0.020069079810586168
2021-06-18,2021-06-14,2021-06-18,4165.0,4115.0,2.5,4166.45,0.0,247.36,129,0.019409338330853315
2021-06-25,2021-06-21,2021-06-25,4085.0,4035.0,3.0,4280.7,0.0,297.36,52,0.019549016548860498
2021-07-02,2021-06-28,2021-07-02,4200.0,4150.0,1.5499999999999998,4352.34,0.0,152.35999999999999,139,0.018852056906580657
2021-07-09,2021-07-06,2021-07-09,4275.0,4225.0,1.7000000000000002,4369.55,0.0,167.36000000000004,5,0.01776975144405082
2021-07-16,2021-07-12,2021-07-16,4290.0,4240.0,2.5,4327.16,0.0,247.36,276,0.01820553603918028
2021-07-23,2021-07-19,2021-07-23,4250.0,4200.0,14.7,4411.79,0.0,1467.36,7,0.017831556956525725
2021-07-30,2021-07-26,2021-07-30,4330.0,4280.0,3.1999999999999997,4395.26,0.0,317.36,70,0.018538960376627167
2021-08-06,2021-08-02,2021-08-06,4315.0,4265.0,0.9499999999999997,4436.52,0.0,92.35999999999997,10,0.018260580716499185
2021-08-13,2021-08-09,2021-08-13,4360.0,4310.0,3.0500000000000003,4468.0,0.0,302.36,18,0.017247752743141116
2021-08-20,2021-08-16,2021-08-20,4395.0,4345.0,4.2,4441.67,0.0,417.36,49,0.016338406445837065
2021-08-27,2021-08-23,2021-08-27,4365.0,4315.0,1.7999999999999998,4509.37,0.0,177.35999999999999,45,0.017261525507297946
2021-09-03,2021-08-30,2021-09-03,4435.0,4385.0,1.65,4535.43,0.0,162.36,184,0.016492325979017
2021-09-10,2021-09-07,2021-09-10,4465.0,4415.0,2.85,4458.58,6.420000000000073,-359.64000000000726,136,0.015528847319879325
2021-09-17,2021-09-13,2021-09-17,4390.0,4340.0,3.8999999999999995,4432.99,0.0,387.35999999999996,37,0.0153815788883456
2021-09-24,2021-09-20,2021-09-24,4365.0,4315.0,14.100000000000001,4455.48,0.0,1407.3600000000001,2,0.015337277999724742
2021-10-01,2021-09-27,2021-10-01,4385.0,4335.0,5.1,4357.04,27.960000000000036,-2288.6400000000035,10,0.01581872211299334
2021-10-08,2021-10-04,2021-10-08,4280.0,4230.0,8.8,4391.34,0.0,877.3600000000001,2,0.017681728880157163
2021-10-15,2021-10-11,2021-10-15,4310.0,4260.0,4.199999999999999,4471.37,0.0,417.35999999999996,43,0.018522819913739347
2021-10-22,2021-10-18,2021-10-22,4390.0,4340.0,3.9000000000000004,4544.9,0.0,387.36000000000007,29,0.018198001954658167
2021-10-29,2021-10-25,2021-10-29,4460.0,4410.0,2.0999999999999996,4605.38,0.0,207.35999999999999,309,0.018680278994037194
2021-11-12,2021-11-08,2021-11-12,4615.0,4565.0,2.3,4682.85,0.0,227.35999999999999,208,0.01756880743709987
2021-11-19,2021-11-15,2021-11-19,4600.0,4550.0,1.95,4697.96,0.0,192.36,152,0.01769221734627425
2021-11-26,2021-11-22,2021-11-26,4620.0,4570.0,0.6000000000000001,4594.62,25.38000000000011,-2480.640000000011,91,0.016594436734242105
2021-12-03,2021-11-29,2021-12-03,4515.0,4465.0,4.1,4538.43,0.0,407.35999999999996,19,0.017328963004557482
2021-12-10,2021-12-06,2021-12-10,4455.0,4405.0,7.199999999999999,4712.02,0.0,717.3599999999999,4,0.018383009102266704
2021-12-17,2021-12-13,2021-12-17,4625.0,4575.0,7.100000000000001,4620.64,4.359999999999673,271.36000000003287,23,0.018467663549815244
2021-12-24,2021-12-20,2021-12-23,4530.0,4480.0,13.7,4725.79,0.0,1367.36,14,0.01961633020533959
2021-12-31,2021-12-27,2021-12-31,4630.0,4580.0,2.0,4766.18,0.0,197.36,346,0.02026962687719936
2022-01-07,2022-01-03,2022-01-07,4675.0,4625.0,2.8000000000000003,4677.03,0.0,277.36,50,0.019130624525301246
2022-01-14,2022-01-10,2022-01-14,4580.0,4530.0,12.7,4662.85,0.0,1267.36,2,0.02074607175921466
2022-01-21,2022-01-18,2022-01-21,4565.0,4515.0,12.400000000000002,4397.94,50.0,-3762.6399999999994,5,0.020985019891268292
2022-01-28,2022-01-24,2022-01-28,4290.0,4240.0,18.0,4431.85,0.0,1797.36,8,0.02454330891280909
2022-02-04,2022-01-31,2022-02-04,4320.0,4270.0,7.5,4500.53,0.0,747.36,12,0.025237767523720422
2022-02-11,2022-02-07,2022-02-11,4385.0,4335.0,5.0,4418.64,0.0,497.36,103,0.025670309941273527
2022-02-18,2022-02-14,2022-02-18,4305.0,4255.0,8.600000000000001,4348.87,0.0,857.3600000000001,28,0.025718320569224993
2022-03-04,2022-02-28,2022-03-04,4260.0,4210.0,10.200000000000003,4328.87,0.0,1017.3600000000002,6,0.028428722931134673
2022-03-11,2022-03-07,2022-03-11,4205.0,4155.0,11.599999999999998,4204.31,0.6899999999995998,1088.3600000000397,12,0.028614857919041205
2022-03-18,2022-03-14,2022-03-18,4080.0,4030.0,7.199999999999999,4463.12,0.0,717.3599999999999,53,0.029567277389155506
2022-03-25,2022-03-21,2022-03-25,4330.0,4280.0,5.0,4543.06,0.0,497.36,130,0.029826668339636823
2022-04-01,2022-03-28,2022-04-01,4415.0,4365.0,2.9000000000000004,4545.86,0.0,287.36000000000007,157,0.02818804946445796
2022-04-08,2022-04-04,2022-04-08,4420.0,4370.0,1.15,4488.28,0.0,112.35999999999999,193,0.027686730343653276
2022-04-15,2022-04-11,2022-04-14,4360.0,4310.0,5.300000000000001,4392.59,0.0,527.3600000000001,43,0.028581104565668754
2022-04-22,2022-04-18,2022-04-22,4270.0,4220.0,4.5,4271.78,0.0,447.36,99,0.027908363858224906
2022-04-29,2022-04-25,2022-04-29,4145.0,4095.0,12.0,4131.93,13.069999999999709,-109.6399999999709,16,0.029678494679033038
2022-05-06,2022-05-02,2022-05-06,4005.0,3955.0,2.6999999999999993,4123.34,0.0,267.35999999999996,1,0.030719300665790632
2022-05-13,2022-05-09,2022-05-13,3990.0,3940.0,14.0,4023.89,0.0,1397.36,24,0.03233786202447534
2022-05-20,2022-05-16,2022-05-20,3885.0,3835.0,9.200000000000001,3901.36,0.0,917.3600000000001,17,0.03451635109309645
2022-05-27,2022-05-23,2022-05-27,3755.0,3705.0,4.9,4158.24,0.0,487.36000000000007,90,0.03751512293149059
2022-06-03,2022-05-31,2022-06-03,4010.0,3960.0,6.700000000000001,4108.54,0.0,667.3600000000001,10,0.035649697949132274
2022-06-10,2022-06-06,2022-06-10,3965.0,3915.0,2.15,3900.86,50.0,-4787.64,648,0.03493698491434913
2022-06-17,2022-06-13,2022-06-17,3750.0,3700.0,15.899999999999999,3674.84,50.0,-3412.64,10,0.038673523274354915
2022-06-24,2022-06-21,2022-06-24,3520.0,3470.0,0.8999999999999999,3911.74,0.0,87.35999999999999,103,0.04213516778961809
2022-07-01,2022-06-27,2022-07-01,3755.0,3705.0,4.6,3825.33,0.0,457.35999999999996,33,0.04006912524861054
2022-07-08,2022-07-05,2022-07-08,3670.0,3620.0,8.799999999999999,3899.38,0.0,877.3599999999999,10,0.04060564709449902
2022-07-15,2022-07-11,2022-07-15,3745.0,3695.0,5.9,3863.16,0.0,587.36,89,0.039590909324046415
2022-07-22,2022-07-18,2022-07-22,3710.0,3660.0,1.4500000000000002,3961.63,0.0,142.36000000000004,90,0.039646299920272486
2022-07-29,2022-07-25,2022-07-29,3805.0,3755.0,3.5999999999999996,4130.29,0.0,357.35999999999996,254,0.039536756335144904
2022-08-05,2022-08-01,2022-08-05,3975.0,3925.0,2.25,4145.19,0.0,222.36,27,0.03759784421917104
2022-08-12,2022-08-08,2022-08-12,3995.0,3945.0,1.45,4280.15,0.0,142.36,222,0.03623235605605524
2022-08-19,2022-08-15,2022-08-19,4130.0,4080.0,1.35,4228.48,0.0,132.36,411,0.035080546242538146
2022-08-26,2022-08-22,2022-08-26,4085.0,4035.0,7.3,4057.66,27.340000000000146,-2006.6400000000147,93,0.033931814741940264
2022-09-02,2022-08-29,2022-09-02,3915.0,3865.0,6.000000000000001,3924.26,0.0,597.3600000000001,22,0.03515819462448797
2022-09-09,2022-09-06,2022-09-09,3780.0,3730.0,2.5,4067.36,0.0,247.36,30,0.03676107087705713
2022-09-16,2022-09-12,2022-09-16,3925.0,3875.0,1.8499999999999996,3873.33,50.0,-4817.64,149,0.035000590063333496
2022-09-23,2022-09-19,2022-09-23,3725.0,3675.0,6.300000000000001,3693.23,31.769999999999982,-2549.639999999998,75,0.03829521367918559
2022-09-30,2022-09-26,2022-09-30,3540.0,3490.0,5.699999999999999,3585.62,0.0,567.3599999999999,1,0.04148942795330917
2022-10-07,2022-10-03,2022-10-07,3435.0,3385.0,2.6,3639.66,0.0,257.36,20,0.042006682247421614
2022-10-14,2022-10-10,2022-10-14,3490.0,3440.0,6.4,3583.07,0.0,637.36,109,0.04111922542215478
2022-10-21,2022-10-17,2022-10-21,3430.0,3380.0,1.0,3752.75,0.0,97.36,531,0.0427203487512106
2022-10-28,2022-10-24,2022-10-28,3600.0,3550.0,2.8999999999999995,3901.06,0.0,287.35999999999996,268,0.04070348411165146
2022-11-04,2022-10-31,2022-11-04,3750.0,3700.0,8.4,3770.55,0.0,837.36,42,0.03872280867251464
2022-11-11,2022-11-07,2022-11-11,3620.0,3570.0,5.6000000000000005,3992.93,0.0,557.36,74,0.03992786198299987
2022-11-18,2022-11-14,2022-11-18,3835.0,3785.0,2.6500000000000004,3965.34,0.0,262.36000000000007,94,0.03955240888270013
2022-11-25,2022-11-21,2022-11-25,3815.0,3765.0,0.6500000000000001,4026.12,0.0,62.360000000000014,230,0.03791352065648851
2022-12-02,2022-11-28,2022-12-02,3880.0,3830.0,3.5,4071.7,0.0,347.36,257,0.03629300666646794
2022-12-09,2022-12-05,2022-12-09,3925.0,3875.0,2.1500000000000004,3934.38,0.0,212.36000000000004,141,0.036029177002234895
2022-12-16,2022-12-12,2022-12-16,3790.0,3740.0,5.9,3852.36,0.0,587.36,25,0.03669701452325401
2022-12-23,2022-12-19,2022-12-23,3705.0,3655.0,1.9000000000000001,3844.82,0.0,187.36,159,0.03825187677164131
2022-12-30,2022-12-27,2022-12-30,3700.0,3650.0,2.3,3839.5,0.0,227.35999999999999,58,0.03766626265989049
2023-01-06,2023-01-03,2023-01-06,3700.0,3650.0,2.55,3895.08,0.0,252.35999999999999,124,0.03633285584060424
2023-01-13,2023-01-09,2023-01-13,3760.0,3710.0,2.5000000000000004,3999.09,0.0,247.36000000000007,200,0.034679647144602914
2023-01-20,2023-01-17,2023-01-20,3865.0,3815.0,0.9999999999999998,3972.61,0.0,97.35999999999997,199,0.03353012810414373
2023-01-27,2023-01-23,2023-01-27,3840.0,3790.0,1.0499999999999998,4070.56,0.0,102.35999999999999,143,0.03338107692423876
2023-02-03,2023-01-30,2023-02-03,3940.0,3890.0,6.000000000000001,4136.48,0.0,597.3600000000001,97,0.03207421091938209
2023-02-10,2023-02-06,2023-02-10,4005.0,3955.0,3.7,4090.46,0.0,367.36,74,0.03178547944145737
2023-02-17,2023-02-13,2023-02-17,3965.0,3915.0,4.4,4079.09,0.0,437.36000000000007,131,0.030671367034514466
2023-02-24,2023-02-21,2023-02-24,3955.0,3905.0,5.9,3970.04,0.0,587.36,4,0.030421000762424988
2023-03-03,2023-02-27,2023-03-03,3845.0,3795.0,0.7999999999999999,4045.64,0.0,77.36,113,0.031495904323382125
2023-03-10,2023-03-06,2023-03-10,3925.0,3875.0,2.05,3861.59,50.0,-4797.64,78,0.02981975657745125
2023-03-17,2023-03-13,2023-03-17,3735.0,3685.0,6.900000000000002,3916.64,0.0,687.3600000000002,3,0.03278183338987312
2023-03-24,2023-03-20,2023-03-24,3790.0,3740.0,6.0,3970.99,0.0,597.36,17,0.03233383716655089
2023-03-31,2023-03-27,2023-03-31,3845.0,3795.0,2.4000000000000004,4109.31,0.0,237.36000000000004,37,0.03172760445128288
2023-04-14,2023-04-10,2023-04-14,3985.0,3935.0,4.800000000000001,4137.64,0.0,477.36000000000007,90,0.02923737277772104
2023-04-21,2023-04-17,2023-04-21,4025.0,3975.0,1.1500000000000001,4133.52,0.0,112.36000000000001,151,0.02722324803511188
2023-04-28,2023-04-24,2023-04-28,4025.0,3975.0,1.55,4169.48,0.0,152.36,424,0.026253653060829614
2023-05-05,2023-05-01,2023-05-05,4060.0,4010.0,2.55,4136.25,0.0,252.35999999999999,58,0.02625747095561067
2023-05-12,2023-05-08,2023-05-12,4025.0,3975.0,2.6999999999999997,4124.08,0.0,267.36,102,0.026896343306134784
2023-05-19,2023-05-15,2023-05-19,4020.0,3970.0,2.5,4191.98,0.0,247.36,221,0.02523714379934432
2023-05-26,2023-05-22,2023-05-26,4090.0,4040.0,1.9999999999999998,4205.45,0.0,197.35999999999999,172,0.024327406142204775
2023-06-02,2023-05-30,2023-06-02,4105.0,4055.0,1.65,4282.37,0.0,162.36,15,0.02388567216350208
2023-06-09,2023-06-05,2023-06-09,4180.0,4130.0,0.9499999999999997,4298.86,0.0,92.35999999999997,94,0.023904987191671875
2023-06-16,2023-06-12,2023-06-16,4200.0,4150.0,1.65,4409.59,0.0,162.36,513,0.02299679449900664
2023-06-23,2023-06-20,2023-06-23,4310.0,4260.0,1.4499999999999997,4348.33,0.0,142.35999999999999,254,0.0225848661666958
2023-06-30,2023-06-26,2023-06-30,4255.0,4205.0,1.0,4450.38,0.0,97.36,275,0.021463412390503925
2023-07-07,2023-07-03,2023-07-07,4355.0,4305.0,0.8499999999999999,4398.95,0.0,82.35999999999999,17,0.021431877727295223
2023-07-14,2023-07-10,2023-07-14,4305.0,4255.0,1.7999999999999998,4505.42,0.0,177.35999999999999,15,0.021357369372236517
2023-07-21,2023-07-17,2023-07-21,4410.0,4360.0,0.8500000000000001,4536.34,0.0,82.36000000000001,302,0.02117893559313007
2023-07-28,2023-07-24,2023-07-28,4445.0,4395.0,1.9499999999999997,4582.23,0.0,192.35999999999999,152,0.02013517505301634
2023-08-04,2023-07-31,2023-08-04,4495.0,4445.0,1.8499999999999999,4478.03,16.970000000000255,-1514.6400000000256,27,0.019036582624617177
2023-08-11,2023-08-07,2023-08-11,4390.0,4340.0,2.4000000000000004,4464.05,0.0,237.36000000000004,268,0.019658197912921473
2023-08-18,2023-08-14,2023-08-18,4375.0,4325.0,3.7,4369.71,5.289999999999964,-161.63999999999632,154,0.019948253267772578
2023-08-25,2023-08-21,2023-08-25,4280.0,4230.0,2.4999999999999996,4405.71,0.0,247.35999999999996,203,0.02052996651951732
2023-09-01,2023-08-28,2023-09-01,4315.0,4265.0,1.55,4515.77,0.0,152.36,26,0.020589189937603707
2023-09-08,2023-09-05,2023-09-08,4425.0,4375.0,1.8,4457.49,0.0,177.36,39,0.02010066943179135
2023-09-15,2023-09-11,2023-09-15,4370.0,4320.0,1.5,4450.32,0.0,147.36,324,0.019627637975631978
2023-09-22,2023-09-18,2023-09-22,4365.0,4315.0,2.8,4320.06,44.9399999999996,-4216.63999999996,189,0.01917165507199476
2023-09-29,2023-09-25,2023-09-29,4230.0,4180.0,4.499999999999999,4288.05,0.0,447.3599999999999,114,0.020846932681490626
2023-10-06,2023-10-02,2023-10-06,4200.0,4150.0,4.999999999999999,4308.5,0.0,497.3599999999999,35,0.020533809074054683
2023-10-13,2023-10-09,2023-10-13,4220.0,4170.0,5.4,4327.78,0.0,537.36,120,0.020540791458744344
2023-10-20,2023-10-16,2023-10-20,4240.0,4190.0,2.7,4224.16,15.840000000000146,-1316.6400000000147,207,0.020282916414420267
2023-10-27,2023-10-23,2023-10-27,4135.0,4085.0,6.1,4117.37,17.63000000000011,-1155.640000000011,75,0.02110715503200633
2023-11-03,2023-10-30,2023-11-03,4025.0,3975.0,3.25,4358.34,0.0,322.36,12,0.022434223788486314
2023-11-10,2023-11-06,2023-11-10,4260.0,4210.0,1.85,4415.24,0.0,182.36,429,0.022563636613940202
2023-11-17,2023-11-13,2023-11-17,4320.0,4270.0,3.4499999999999997,4514.02,0.0,342.36,233,0.021570741341353988
2023-11-24,2023-11-20,2023-11-24,4415.0,4365.0,0.35,4559.34,0.0,32.36,271,0.021936101302165348
2023-12-01,2023-11-27,2023-12-01,4465.0,4415.0,1.1,4594.63,0.0,107.36000000000001,4,0.020691591326814876
2023-12-08,2023-12-04,2023-12-08,4505.0,4455.0,4.6,4604.37,0.0,457.35999999999996,20,0.01950755555942483
2023-12-15,2023-12-11,2023-12-15,4515.0,4465.0,2.6000000000000005,4719.19,0.0,257.36000000000007,152,0.019409821539103048
2023-12-22,2023-12-18,2023-12-22,4630.0,4580.0,0.75,4754.63,0.0,72.36,79,0.01889942977502487
2023-12-29,2023-12-26,2023-12-29,4665.0,4615.0,0.8999999999999999,4769.83,0.0,87.35999999999999,278,0.018851098823672946
2024-01-05,2024-01-02,2024-01-05,4685.0,4635.0,4.15,4697.24,0.0,412.36000000000007,38,0.017784700922255075
2024-01-12,2024-01-08,2024-01-12,4615.0,4565.0,1.8000000000000003,4783.83,0.0,177.36000000000004,391,0.01750815372431466
2024-01-19,2024-01-16,2024-01-19,4700.0,4650.0,3.4,4839.81,0.0,337.36,150,0.017523616014783118
2024-01-26,2024-01-22,2024-01-26,4755.0,4705.0,1.1,4890.97,0.0,107.36000000000001,459,0.017523415175389197
2024-02-02,2024-01-29,2024-02-02,4810.0,4760.0,4.1000000000000005,4958.61,0.0,407.36000000000007,193,0.016554998292772242
2024-02-09,2024-02-05,2024-02-09,4875.0,4825.0,3.2,5026.61,0.0,317.36,28,0.01686158016056913
2024-02-16,2024-02-12,2024-02-16,4945.0,4895.0,2.6999999999999997,5005.57,0.0,267.36,263,0.016235594167838697
2024-02-23,2024-02-20,2024-02-23,4920.0,4870.0,6.1,5088.8,0.0,607.36,21,0.01709495621877223
2024-03-01,2024-02-26,2024-03-01,5000.0,4950.0,2.25,5137.08,0.0,222.36,9,0.017450086464392427
2024-03-08,2024-03-04,2024-03-08,5050.0,5000.0,3.0,5123.69,0.0,297.36,99,0.016951264142275366
2024-03-15,2024-03-11,2024-03-15,5035.0,4985.0,7.5,5117.09,0.0,747.36,24,0.017309790404961972
2024-03-22,2024-03-18,2024-03-22,5030.0,4980.0,2.2,5234.18,0.0,217.36000000000004,387,0.017019438782589352
2024-03-29,2024-03-25,2024-03-28,5145.0,5095.0,1.5999999999999999,5254.35,0.0,157.36,24,0.01703800786369599
2024-04-05,2024-04-01,2024-04-05,5170.0,5120.0,1.9,5204.34,0.0,187.36,6,0.016053365306841066
2024-04-12,2024-04-08,2024-04-12,5120.0,5070.0,5.3999999999999995,5123.41,0.0,537.36,24,0.016205705238320354
2024-04-19,2024-04-15,2024-04-19,5035.0,4985.0,2.3499999999999996,4967.23,50.0,-4767.64,57,0.017256085302562132
2024-04-26,2024-04-22,2024-04-26,4875.0,4825.0,3.6999999999999997,5099.96,0.0,367.36,160,0.01856769265767834
2024-05-03,2024-04-29,2024-05-03,5005.0,4955.0,4.4,5127.79,0.0,437.36000000000007,107,0.0186197538804226
2024-05-10,2024-05-06,2024-05-10,5035.0,4985.0,1.15,5222.68,0.0,112.35999999999999,144,0.018095514831925636
2024-05-17,2024-05-13,2024-05-17,5130.0,5080.0,3.35,5303.27,0.0,332.36,93,0.01774567846393045
2024-05-24,2024-05-20,2024-05-24,5210.0,5160.0,1.25,5304.72,0.0,122.36,80,0.017587262198605846
2024-05-31,2024-05-28,2024-05-31,5215.0,5165.0,1.6,5277.51,0.0,157.36,157,0.016913239530078922
2024-06-07,2024-06-03,2024-06-07,5185.0,5135.0,0.5500000000000003,5346.99,0.0,52.36000000000003,100,0.017529099897489575
2024-06-14,2024-06-10,2024-06-14,5255.0,5205.0,5.9,5431.6,0.0,587.36,119,0.01720407182358669
2024-06-21,2024-06-17,2024-06-21,5340.0,5290.0,2.4,5464.62,0.0,237.36,78,0.016864275719861616
2024-06-28,2024-06-24,2024-06-28,5375.0,5325.0,1.9,5460.48,0.0,187.36,46,0.016400042454919078
2024-07-05,2024-07-01,2024-07-05,5370.0,5320.0,0.8999999999999999,5567.19,0.0,87.35999999999999,17,0.016569971870604702
2024-07-12,2024-07-08,2024-07-12,5475.0,5425.0,1.6,5615.35,0.0,157.36,332,0.016559521051014894
2024-07-19,2024-07-15,2024-07-19,5525.0,5475.0,1.4000000000000001,5505.0,20.0,-1862.6400000000003,86,0.016089825211251366
2024-07-26,2024-07-22,2024-07-26,5415.0,5365.0,2.1,5459.1,0.0,207.36,213,0.01634877384196185
2024-08-02,2024-07-29,2024-08-02,5365.0,5315.0,5.7,5346.56,18.4399999999996,-1276.63999999996,11,0.017237273543258113
2024-08-16,2024-08-12,2024-08-16,5235.0,5185.0,8.3,5554.25,0.0,827.3600000000001,1,0.020426035148648217
2024-08-23,2024-08-19,2024-08-23,5440.0,5390.0,2.5,5634.61,0.0,247.36,12,0.020569833910969077
2024-08-30,2024-08-26,2024-08-30,5520.0,5470.0,2.9499999999999997,5648.4,0.0,292.36,143,0.02034036073481566
2024-09-06,2024-09-03,2024-09-06,5540.0,5490.0,8.100000000000001,5408.42,50.0,-4192.64,2,0.019191275405424483
2024-09-13,2024-09-09,2024-09-13,5295.0,5245.0,3.3999999999999995,5626.02,0.0,337.35999999999996,64,0.020971004470806645
2024-09-20,2024-09-16,2024-09-20,5505.0,5455.0,4.3,5702.55,0.0,427.36,17,0.02151076604775675
2024-09-27,2024-09-23,2024-09-27,5585.0,5535.0,2.1500000000000004,5738.17,0.0,212.36000000000004,45,0.020613585150502878
2024-10-04,2024-09-30,2024-10-04,5625.0,5575.0,6.1000000000000005,5751.07,0.0,607.36,28,0.019722315651157087
2024-10-11,2024-10-07,2024-10-11,5640.0,5590.0,6.500000000000002,5815.03,0.0,647.3600000000002,66,0.019312927855164294
2024-10-18,2024-10-14,2024-10-18,5705.0,5655.0,1.6499999999999995,5864.67,0.0,162.35999999999996,34,0.018921656466088697
2024-10-25,2024-10-21,2024-10-25,5755.0,5705.0,2.4,5808.12,0.0,237.36,91,0.018700114413939758
2024-11-01,2024-10-28,2024-11-01,5705.0,5655.0,4.0,5728.8,0.0,397.36,28,0.017754454109074863
2024-11-08,2024-11-04,2024-11-08,5625.0,5575.0,7.300000000000001,5995.54,0.0,727.3600000000001,20,0.018118977796397182
2024-11-15,2024-11-11,2024-11-15,5880.0,5830.0,2.0999999999999996,5870.62,9.38000000000011,-730.6400000000109,177,0.01927099143696814
2024-11-22,2024-11-18,2024-11-22,5755.0,5705.0,4.499999999999999,5969.34,0.0,447.3599999999999,17,0.019694683014741185
2024-11-29,2024-11-25,2024-11-29,5855.0,5805.0,0.6000000000000001,6032.38,0.0,57.36000000000001,192,0.019154546398764377
2024-12-06,2024-12-02,2024-12-06,5920.0,5870.0,1.1500000000000001,6090.27,0.0,112.36000000000001,11,0.0186294629980207
2024-12-13,2024-12-09,2024-12-13,5985.0,5935.0,1.7,6051.09,0.0,167.36,137,0.017284947957972377
2024-12-20,2024-12-16,2024-12-20,5950.0,5900.0,1.8000000000000003,5930.85,19.149999999999636,-1737.6399999999637,196,0.01670608105316565
2025-01-03,2024-12-30,2025-01-03,5860.0,5810.0,15.200000000000003,5942.47,0.0,1517.3600000000001,11,0.01856355219701083
2025-01-10,2025-01-06,2025-01-10,5830.0,5780.0,1.3,5827.04,2.9600000000000364,-168.64000000000362,62,0.01892647333516202
2025-01-17,2025-01-13,2025-01-17,5710.0,5660.0,8.700000000000001,5996.66,0.0,867.3600000000001,40,0.02008566956808259
2025-01-24,2025-01-21,2025-01-24,5875.0,5825.0,1.7000000000000002,6101.24,0.0,167.36000000000004,30,0.02028796029789914
2025-01-31,2025-01-27,2025-01-31,5980.0,5930.0,13.600000000000001,6040.53,0.0,1357.3600000000001,4,0.019871370409949417
2025-02-07,2025-02-03,2025-02-07,5920.0,5870.0,7.600000000000001,6025.99,0.0,757.3600000000001,100,0.019953547122520666
2025-02-14,2025-02-10,2025-02-14,5905.0,5855.0,2.8000000000000003,6114.63,0.0,277.36,36,0.020078028672467062
2025-02-21,2025-02-18,2025-02-21,5995.0,5945.0,2.05,6013.13,0.0,202.35999999999999,30,0.01956455255673689
2025-02-28,2025-02-24,2025-02-28,5895.0,5845.0,6.800000000000001,5954.5,0.0,677.3600000000001,20,0.01964534277489429
2025-03-07,2025-03-03,2025-03-07,5835.0,5785.0,1.0,5770.2,50.0,-4902.64,5,0.02006885548744647
2025-03-14,2025-03-10,2025-03-14,5640.0,5590.0,17.0,5638.94,1.0600000000004002,1591.3599999999599,3,0.02256420921285221
2025-03-21,2025-03-17,2025-03-21,5505.0,5455.0,5.399999999999999,5667.56,0.0,537.3599999999999,17,0.023752691108612542
2025-03-28,2025-03-24,2025-03-28,5535.0,5485.0,1.35,5580.94,0.0,132.36,119,0.023389253929380613
2025-04-04,2025-03-31,2025-04-04,5445.0,5395.0,13.0,5074.08,50.0,-3702.64,3,0.02435790386565697
2025-04-11,2025-04-07,2025-04-11,4915.0,4865.0,16.400000000000006,5363.36,0.0,1637.3600000000004,7,0.0313514962318292
2025-04-18,2025-04-14,2025-04-17,5175.0,5125.0,4.299999999999997,5282.7,0.0,427.35999999999973,2,0.035119775663017154
2025-04-25,2025-04-21,2025-04-25,5095.0,5045.0,11.900000000000002,5525.21,0.0,1187.3600000000001,14,0.03553107312548504
2025-05-02,2025-04-28,2025-05-02,5330.0,5280.0,5.199999999999999,5686.67,0.0,517.3599999999999,20,0.035330783807312305
2025-05-09,2025-05-05,2025-05-09,5490.0,5440.0,0.40000000000000036,5659.91,0.0,37.360000000000035,10,0.03458438769965552
2025-05-16,2025-05-12,2025-05-16,5470.0,5420.0,0.34999999999999987,5958.38,0.0,32.359999999999985,216,0.03355353707037742
2025-05-23,2025-05-19,2025-05-23,5765.0,5715.0,3.2,5802.82,0.0,317.36,122,0.03245513042135616
2025-05-30,2025-05-27,2025-05-30,5610.0,5560.0,0.7000000000000002,5911.69,0.0,67.36000000000001,16,0.03322867157692289
2025-06-06,2025-06-02,2025-06-06,5725.0,5675.0,1.6999999999999993,6000.36,0.0,167.35999999999996,80,0.03157980205321991
2025-06-13,2025-06-09,2025-06-13,5820.0,5770.0,1.7500000000000002,5976.97,0.0,172.36000000000004,11,0.030058196508209456
2025-06-20,2025-06-16,2025-06-20,5805.0,5755.0,0.8000000000000003,5967.84,0.0,77.36000000000003,305,0.02877210359094997
2025-06-27,2025-06-23,2025-06-27,5800.0,5750.0,1.9999999999999996,6173.07,0.0,197.35999999999996,114,0.02812407839352264
2025-07-04,2025-06-30,2025-07-03,6005.0,5955.0,0.75,6279.35,0.0,72.36,40,0.027226323369085353
2025-07-11,2025-07-07,2025-07-11,6115.0,6065.0,2.8000000000000007,6259.75,0.0,277.36000000000007,78,0.026173091163894407
2025-07-18,2025-07-14,2025-07-18,6105.0,6055.0,2.35,6296.79,0.0,232.36,138,0.02472143456208315
2025-07-25,2025-07-21,2025-07-25,6145.0,6095.0,0.75,6388.64,0.0,72.36,150,0.02410593334063864
2025-08-01,2025-07-28,2025-08-01,6240.0,6190.0,2.3499999999999996,6238.01,1.9899999999997817,33.36000000002179,68,0.023266297678379174
2025-08-08,2025-08-04,2025-08-08,6090.0,6040.0,1.2999999999999998,6389.45,0.0,127.35999999999997,128,0.023727118103369537
2025-08-15,2025-08-11,2025-08-15,6245.0,6195.0,2.4000000000000004,6449.8,0.0,237.36000000000004,93,0.02260757968213224
2025-08-22,2025-08-18,2025-08-22,6305.0,6255.0,2.5000000000000004,6466.91,0.0,247.36000000000007,73,0.02245030853669884
2025-08-29,2025-08-25,2025-08-29,6325.0,6275.0,2.55,6460.26,0.0,252.35999999999999,120,0.02194401963225093
2025-09-12,2025-09-08,2025-09-12,6345.0,6295.0,2.0,6584.29,0.0,197.36,47,0.021059939828743348
2025-09-19,2025-09-15,2025-09-19,6450.0,6400.0,1.7000000000000002,6664.36,0.0,167.36000000000004,105,0.020395517208385408
2025-09-26,2025-09-22,2025-09-26,6535.0,6485.0,2.2,6643.7,0.0,217.36000000000004,71,0.01941071610777324
2025-10-03,2025-09-29,2025-10-03,6515.0,6465.0,1.8000000000000003,6715.79,0.0,177.36000000000004,54,0.019371735629242715
2025-10-10,2025-10-06,2025-10-10,6590.0,6540.0,2.3999999999999995,6552.51,37.48999999999978,-3511.639999999978,61,0.01873048442551062
2025-10-17,2025-10-13,2025-10-17,6425.0,6375.0,2.1000000000000005,6664.01,0.0,207.36000000000007,111,0.019459718489555942
2025-10-24,2025-10-20,2025-10-24,6535.0,6485.0,3.2,6791.69,0.0,317.36,51,0.019359214647036875
2025-10-31,2025-10-27,2025-10-31,6665.0,6615.0,1.9000000000000004,6840.2,0.0,187.36000000000004,111,0.018653678245031738
2025-11-07,2025-11-03,2025-11-07,6715.0,6665.0,3.8999999999999995,6728.8,0.0,387.35999999999996,3,0.01830355837548607
2025-11-14,2025-11-10,2025-11-14,6600.0,6550.0,1.6999999999999997,6734.11,0.0,167.35999999999999,79,0.019141600285340652
2025-11-21,2025-11-17,2025-11-21,6600.0,6550.0,6.299999999999999,6602.99,0.0,627.3599999999999,14,0.01991502960302099
2025-11-28,2025-11-24,2025-11-28,6465.0,6415.0,3.5999999999999996,6849.09,0.0,357.35999999999996,4,0.02089810828124831
2025-12-05,2025-12-01,2025-12-05,6705.0,6655.0,3.2,6870.4,0.0,317.36,16,0.02103783130313664
2025-12-12,2025-12-08,2025-12-12,6735.0,6685.0,4.499999999999999,6827.41,0.0,447.3599999999999,59,0.019707731718677172
2025-12-19,2025-12-15,2025-12-19,6695.0,6645.0,4.200000000000001,6834.5,0.0,417.3600000000001,15,0.019393884357318494
2025-12-26,2025-12-22,2025-12-26,6705.0,6655.0,0.6499999999999999,6929.94,0.0,62.359999999999985,8,0.01894798449045285
2026-01-02,2025-12-29,2026-01-02,6800.0,6750.0,2.5,6858.47,0.0,247.36,22,0.01875052309255197
2026-01-09,2026-01-05,2026-01-09,6735.0,6685.0,1.6,6966.28,0.0,157.36,33,0.018002557421699046
2026-01-16,2026-01-12,2026-01-16,6845.0,6795.0,3.7,6940.01,0.0,367.36,3,0.017409578713459658
2026-01-23,2026-01-20,2026-01-23,6820.0,6770.0,13.3,6915.61,0.0,1327.36,8,0.01729248228748953
2026-01-30,2026-01-26,2026-01-30,6795.0,6745.0,3.7,6939.03,0.0,367.36,20,0.017440254728071664
2026-02-13,2026-02-09,2026-02-13,6810.0,6760.0,6.400000000000002,6836.17,0.0,637.3600000000002,15,0.01764205242127435
2026-02-20,2026-02-17,2026-02-20,6710.0,6660.0,10.7,6909.51,0.0,1067.36,18,0.018456240848311274
2026-02-27,2026-02-23,2026-02-27,6785.0,6735.0,8.3,6878.88,0.0,827.3600000000001,9,0.018020091149734237
2026-03-06,2026-03-02,2026-03-06,6755.0,6705.0,6.5,6740.02,14.979999999999563,-850.6399999999563,1,0.01800874560975044
2026-03-13,2026-03-09,2026-03-13,6615.0,6565.0,15.300000000000004,6632.19,0.0,1527.3600000000004,3,0.018548906383067176
2026-03-20,2026-03-16,2026-03-20,6505.0,6455.0,4.699999999999999,6506.48,0.0,467.35999999999996,22,0.019177677358459214
2026-03-27,2026-03-23,2026-03-27,6370.0,6320.0,3.3000000000000007,6368.85,1.1499999999996362,212.36000000003645,12,0.020976011606890294
2026-04-03,2026-03-30,2026-04-02,6225.0,6175.0,7.700000000000001,6582.69,0.0,767.3600000000001,39,0.022586495207141063
2026-04-10,2026-04-06,2026-04-10,6435.0,6385.0,5.0,6816.89,0.0,497.36,3,0.022436116542021517
2026-04-17,2026-04-13,2026-04-17,6660.0,6610.0,4.100000000000001,7126.06,0.0,407.3600000000001,1,0.02301489388856213
2026-04-24,2026-04-20,2026-04-24,6960.0,6910.0,3.9000000000000004,7165.08,0.0,387.36000000000007,6,0.023303199804660696
2026-05-01,2026-04-27,2026-05-01,7005.0,6955.0,4.800000000000001,7230.12,0.0,477.36000000000007,29,0.02234169053241554
2026-05-08,2026-05-04,2026-05-08,7075.0,7025.0,3.4000000000000004,7398.93,0.0,337.36000000000007,14,0.021454692314926985
2026-05-15,2026-05-11,2026-05-15,7240.0,7190.0,2.6000000000000005,7408.5,0.0,257.36000000000007,78,0.021480132938141095
2026-05-22,2026-05-18,2026-05-22,7250.0,7200.0,3.8999999999999995,7473.47,0.0,387.35999999999996,48,0.021394344334210703
2026-05-29,2026-05-26,2026-05-29,7320.0,7270.0,1.1500000000000004,7580.06,0.0,112.36000000000003,53,0.020535306892246873
2026-06-12,2026-06-08,2026-06-12,7230.0,7180.0,3.9000000000000004,7431.46,0.0,387.36000000000007,32,0.020821426539937727
2026-06-19,2026-06-15,2026-06-18,7275.0,7225.0,0.8999999999999999,7500.58,0.0,87.35999999999999,25,0.021053736412494993
2026-06-26,2026-06-22,2026-06-26,7345.0,7295.0,2.4000000000000004,7354.02,0.0,237.36000000000004,111,0.02074239592138207
2026-07-03,2026-06-29,2026-07-02,7195.0,7145.0,2.5,7483.24,0.0,247.36,21,0.021623547393126538
2026-07-10,2026-07-06,2026-07-10,7325.0,7275.0,0.39999999999999947,7575.39,0.0,37.35999999999994,5,0.02114592075090466
2026-07-17,2026-07-13,2026-07-17,7420.0,7370.0,2.9000000000000004,7457.69,0.0,287.36000000000007,44,0.020512475265299916
2026-07-24,2026-07-20,2026-07-24,7305.0,7255.0,3.4000000000000004,7411.98,0.0,337.36000000000007,68,0.02047416827462654
2026-07-31,2026-07-27,2026-07-31,7260.0,7210.0,4.6,7489.72,0.0,457.35999999999996,16,0.02050464248419445
2026-08-07,2026-08-03,2026-08-07,7340.0,7290.0,1.0999999999999996,7757.64,0.0,107.35999999999997,3,0.019990066384324146
